
 begin log for calibration v12021-03-03 14:58:28.9560532.7715266651407644
3.2968276493476765
3.2968276493476765
3.2968276493476765
2.4138063630121307
0.33838406958113987
0.33838406958113987
1.6725841153582053
3.2968276493476765
3.2968276493476765
3.2227054245822844
1.7177019913023575
0.33516136415655756
0.33516136415655756
0.7798947127489128
2.7425223163195236
3.2968276493476765
3.2968276493476765
3.2968276493476765
2.7940856031128405
1.3503135728999769
0.33193865873197526
0.33516136415655756
0.6606546120393683
3.2968276493476765
3.2968276493476765
3.2968276493476765
3.006784161135271
2.8424261844815746
1.940068665598535
0.7573357747768368
0.33516136415655756
0.33193865873197526
0.33516136415655756
0.33838406958113987
0.5188555733577477
1.1730647745479514
1.9594048981460288
3.2968276493476765
3.2968276493476765
0.33516136415655756
2.9584435797665365
0.5543053330281529
2.861762417029068
0.33193865873197526
3.2968276493476765
3.1292469672693977
3.2968276493476765
3.2968276493476765
3.2968276493476765
3.2968276493476765
3.2968276493476765
3.2968276493476765
3.2968276493476765
0.5929777981231402
0.7637811856260013
1.4437720302128632
1.4469947356374455
1.089274433508812
0.9732570382238498
0.3641657129777981
0.33516136415655756
1.3567589837491416
1.1827328908216983
0.8443488212405584
0.9506981002517738
3.2968276493476765
3.2968276493476765
3.2968276493476765
0.33516136415655756
0.37383382925154496
1.985186541542687
1.9916319523918515
2.4653696498054476
2.929439230945296
0.33193865873197526
0.33193865873197526
0.3802792401007095
1.9594048981460288
2.5459372854200044
3.0712382696269165
3.2968276493476765
3.2968276493476765
3.2968276493476765
3.2968276493476765
2.2720073243305103
0.9216937514305332
0.33838406958113987
0.33516136415655756
0.33516136415655756
0.33193865873197526
0.33516136415655756
0.3802792401007095
2.1173174639505605
2.8778759441519797
3.2968276493476765
3.2968276493476765
2.226889448386358
0.873353170061799
0.33516136415655756
0.33193865873197526
0.33838406958113987
1.3632043945983061
2.4041382467383836
3.2968276493476765
3.2968276493476765
3.2968276493476765
2.152767223620966
0.5865323872739757
0.33193865873197526
0.33193865873197526
0.7251087205310139
2.5233783474479283
3.2968276493476765
3.2968276493476765
3.2968276493476765
0.6026459143968872
0.33193865873197526
0.33193865873197526
1.102165255207141
2.8553170061799036
3.2968276493476765
3.2968276493476765
1.066715495536736
0.33516136415655756
0.34160677500572206
2.417029068436713
3.2968276493476765
3.290382238498512
0.8346807049668116
0.33193865873197526
1.2568551155870908
3.2968276493476765
0.9023575188830396
0.33516136415655756
1.5050034332799267
0.33193865873197526
1.543675898374914
0.33516136415655756
1.9271778439002059
3.2968276493476765
2.829535362783245
3.2968276493476765
2.2011078049897
0.33516136415655756
0.34160677500572206
2.9777798123140307
3.2968276493476765
0.9378072785534447
0.33193865873197526
2.7360769054703593
3.2968276493476765
1.15695124742504
0.33193865873197526
1.8111604486152437
3.2968276493476765
1.7724879835202563
0.33193865873197526
2.184994277866789
3.2968276493476765
1.4018768596932936
0.33193865873197526
2.1592126344701303
3.2968276493476765
1.0377111467154954
0.33193865873197526
2.6587319752803844
3.2968276493476765
0.7122178988326848
0.33193865873197526
2.1946623941405354
3.2968276493476765
2.0206363012130923
3.2968276493476765
1.5597894254978255
0.33193865873197526
2.31390249485008
3.2968276493476765
1.4502174410620279
0.33193865873197526
1.9175097276264592
3.2968276493476765
2.001300068665598
0.33516136415655756
0.9893705653467612
3.2968276493476765
2.3976928358892193
0.33516136415655756
0.5865323872739757
3.2968276493476765
3.2968276493476765
0.33516136415655756
0.3770565346761272
3.2968276493476765
2.452478828107118
0.33516136415655756
1.2439642938887616
3.2968276493476765
2.378356603341726
0.33193865873197526
0.6090913252460517
3.2968276493476765
3.2968276493476765
0.33516136415655756
1.0796063172350652
3.2968276493476765
3.2839368276493475
0.33193865873197526
2.6845136186770424
3.2968276493476765
0.3899473563744564
0.3802792401007095
1.6822522316319524
0.33193865873197526
3.0776836804760817
3.2968276493476765
0.33193865873197526
1.7628198672465094
3.2968276493476765
0.9088029297322041
0.32871595330739295
3.2968276493476765
1.076383611810483
0.32871595330739295
3.2968276493476765
2.310679789425498
0.9732570382238498
1.7595971618219273
0.33516136415655756
1.530785076676585
3.2968276493476765
0.33516136415655756
0.3609430075532158
3.2968276493476765
0.32549324788281064
0.32871595330739295
0.33193865873197526
0.32871595330739295
0.33193865873197526
0.32871595330739295
0.32871595330739295
3.2968276493476765
1.3664271000228883
0.33193865873197526
3.2968276493476765
1.3406454566262302
0.33193865873197526
3.2968276493476765
1.517894254978256
0.33193865873197526
3.2968276493476765
1.0409338521400777
0.32871595330739295
3.2968276493476765
1.8981734950789653
3.2968276493476765
2.8488715953307393
3.2968276493476765
3.2968276493476765
2.9648889906157017
3.2968276493476765
3.2968276493476765
2.3010116731517507
3.2968276493476765
2.5362691691462578
0.9668116273746853
3.2968276493476765
0.6090913252460517
2.8778759441519797
3.2968276493476765
3.2968276493476765
0.6703227283131151
1.67902952620737
0.895912108033875
0.33193865873197526
3.2968276493476765
3.2968276493476765
3.2968276493476765
0.3899473563744564
3.2968276493476765
3.2968276493476765
1.1440604257267109
3.2968276493476765
3.2968276493476765
3.2968276493476765
0.33516136415655756
0.33516136415655756
0.351274891279469
0.32871595330739295
0.33193865873197526
1.408322270542458
0.33193865873197526
0.33193865873197526
3.2517097734035247
0.33193865873197526
0.32871595330739295
3.2968276493476765
3.2968276493476765
3.2968276493476765
3.2968276493476765
3.2968276493476765
3.2355962462806134
3.2968276493476765
3.2968276493476765
3.2968276493476765
2.0689768825818264
2.7940856031128405
0.33193865873197526
1.8852826733806363
0.702549782558938
0.33193865873197526
0.3641657129777981
1.8981734950789653
0.33193865873197526
3.1614740215152204
1.4598855573357747
2.5104875257495993
3.2968276493476765
0.33193865873197526
2.5394918745708397
0.33516136415655756
0.33193865873197526
3.2968276493476765
0.33193865873197526
3.2968276493476765
0.9474753948271916
1.746706340123598
3.2968276493476765
0.33516136415655756
3.1937010757610436
0.33193865873197526
3.2968276493476765
3.2968276493476765
3.2968276493476765
3.2968276493476765
3.2968276493476765
2.829535362783245
1.5920164797436482
3.2968276493476765
1.4469947356374455
3.2968276493476765
2.310679789425498
2.378356603341726
3.2968276493476765
2.043195239185168
3.0454566262302585
3.2968276493476765
2.8553170061799036
3.2968276493476765
3.2968276493476765
3.2968276493476765
3.2968276493476765
3.2968276493476765
3.2968276493476765
2.826312657358663
1.4341039139391165
2.233334859235523
3.2968276493476765
0.33193865873197526
2.555605401693751
1.4179903868162052
0.3544975967040513
3.2968276493476765
0.33193865873197526
3.2968276493476765
0.33193865873197526
2.9326619363698785
0.33193865873197526
2.4041382467383836
0.32871595330739295
0.3577203021286335
1.4953353170061798
1.3825406271457998
3.2968276493476765
3.2968276493476765
0.33516136415655756
3.2968276493476765
2.597500572213321
2.6136140993362322
2.9101029983978024
1.485667200732433
0.3577203021286335
3.2968276493476765
0.32871595330739295
3.2968276493476765
0.33193865873197526
2.6168368047608146
0.39317006179903863
1.4469947356374455
2.0754222934309907
0.32871595330739295
3.2968276493476765
0.33193865873197526
3.2968276493476765
0.33193865873197526
2.2945662623025864
0.5156328679331655
1.189178301670863
1.756374456397345
3.2968276493476765
0.33516136415655756
3.280714122224765
0.33193865873197526
2.1173174639505605
1.7531517509727625
0.3609430075532158
3.2968276493476765
0.33193865873197526
3.2968276493476765
0.32871595330739295
2.839203479056992
1.2246280613412681
1.6629159990844586
2.2430029755092695
0.3577203021286335
3.2968276493476765
0.32871595330739295
3.2968276493476765
0.33193865873197526
3.2968276493476765
0.33193865873197526
2.339684138246738
0.6509864957656213
1.3696498054474708
3.2968276493476765
3.2968276493476765
3.2968276493476765
3.2968276493476765
3.2968276493476765
3.2968276493476765
3.2968276493476765
3.2968276493476765
0.5027420462348363
3.145360494392309
0.33516136415655756
3.2968276493476765
0.33193865873197526
2.707072556649119
0.33193865873197526
2.6877363241016248
0.6090913252460517
3.2968276493476765
1.6661387045090408
3.2968276493476765
3.0003387502861063
2.632950331883726
3.2968276493476765
0.33838406958113987
3.2968276493476765
0.32871595330739295
3.2968276493476765
0.33193865873197526
3.2968276493476765
0.33193865873197526
3.142137788967727
0.32871595330739295
1.7982696269169145
0.32871595330739295
1.057047379262989
0.33193865873197526
0.32871595330739295
0.5253009842069123
0.33193865873197526
3.119578850995651
0.33516136415655756
3.2968276493476765
1.053824673838407
3.2968276493476765
1.6274662394140536
3.2968276493476765
0.4447333485923552
0.3609430075532158
1.214959945067521
0.3609430075532158
2.326793316548409
0.33193865873197526
3.2968276493476765
0.33193865873197526
3.2968276493476765
0.33193865873197526
3.2968276493476765
0.33516136415655756
3.2968276493476765
0.33193865873197526
3.2968276493476765
0.32871595330739295
3.2968276493476765
0.783117418173495
3.2968276493476765
1.0183749141680019
2.758635843442435
2.5137102311741817
0.6703227283131151
3.2968276493476765
0.3641657129777981
3.2968276493476765
0.33516136415655756
3.2968276493476765
0.4608468757152666
3.0390112153810938
3.2968276493476765
3.2968276493476765
2.8424261844815746
3.2968276493476765
0.33193865873197526
3.2968276493476765
0.33193865873197526
3.2968276493476765
0.33193865873197526
2.8778759441519797
1.15695124742504
2.339684138246738
3.2968276493476765
3.2968276493476765
3.2968276493476765
3.2968276493476765
3.2968276493476765
3.2968276493476765
0.33193865873197526
3.0680155642023346
1.6822522316319524
1.2665232318608375
0.3577203021286335
3.2968276493476765
0.32871595330739295
3.097019913023575
0.33516136415655756
1.9336232547493706
2.030304417486839
0.33516136415655756
3.2968276493476765
0.33193865873197526
3.1389150835431447
0.33193865873197526
2.2494483863584347
1.940068665598535
0.3577203021286335
3.2968276493476765
0.33516136415655756
3.2968276493476765
3.2968276493476765
2.3848020141908903
0.5156328679331655
3.2968276493476765
0.33193865873197526
3.2968276493476765
3.2968276493476765
3.2968276493476765
3.2968276493476765
3.2968276493476765
3.0809063859006636
2.471815060654612
0.33516136415655756
0.32871595330739295
3.2968276493476765
3.187255664911879
3.2968276493476765
2.6619546807049663
0.32549324788281064
0.9925932707713435
0.5607507438773174
3.2968276493476765
3.2968276493476765
0.32871595330739295
3.2968276493476765
0.33193865873197526
3.2517097734035247
1.0151522087434195
1.8176058594644082
3.2968276493476765
0.32871595330739295
0.33193865873197526
1.8208285648889906
0.33193865873197526
3.2968276493476765
2.033527122911421
0.567196154726482
0.3609430075532158
1.405099565117876
0.33193865873197526
3.2968276493476765
0.32871595330739295
3.2968276493476765
1.0248203250171664
1.962627603570611
2.381579308766308
0.3480521858548867
3.2968276493476765
0.33516136415655756
3.2968276493476765
0.32871595330739295
3.2968276493476765
0.4286198214694438
2.2011078049897
2.062531471732662
0.32871595330739295
3.2968276493476765
0.33516136415655756
3.2968276493476765
1.1150560769054703
3.2968276493476765
1.4824444953078508
3.2968276493476765
3.2968276493476765
2.184994277866789
3.2968276493476765
2.259116502632181
3.2968276493476765
0.33516136415655756
3.2968276493476765
0.33516136415655756
3.2968276493476765
1.6951430533302816
3.145360494392309
3.2968276493476765
0.34482948043030437
3.2968276493476765
3.2968276493476765
3.2968276493476765
2.951998168917372
1.6081300068665596
3.2968276493476765
3.2968276493476765
3.2968276493476765
0.33838406958113987
1.827273975738155
2.5169329365987636
0.351274891279469
3.2968276493476765
0.33193865873197526
2.6265049210345617
0.4415106431677729
3.2968276493476765
3.2968276493476765
2.7231860837720303
3.2968276493476765
3.2968276493476765
2.152767223620966
1.6081300068665596
3.064792858777752
2.1592126344701303
2.42669718471046
2.1495445181963837
0.33516136415655756
3.2968276493476765
0.33193865873197526
3.0228976882581824
0.32871595330739295
1.714479285877775
0.33193865873197526
3.2968276493476765
0.33193865873197526
2.974557106889448
0.7766720073243305
1.2761913481345846
3.2968276493476765
0.33193865873197526
2.246225680933852
0.3770565346761272
3.2968276493476765
0.33193865873197526
3.1904783703364616
0.828235294117647
1.3632043945983061
3.2613778896772714
0.32871595330739295
3.2968276493476765
0.33516136415655756
3.2968276493476765
0.33516136415655756
2.439588006408789
2.1688807507438774
0.33516136415655756
3.2968276493476765
0.33193865873197526
3.2130373083085373
0.9732570382238498
0.8604623483634698
3.2968276493476765
0.33516136415655756
3.2968276493476765
0.33516136415655756
3.155028610666056
1.521116960402838
0.3770565346761272
3.2968276493476765
0.33516136415655756
3.267823300526436
1.5275623712520026
0.6477637903410391
3.2968276493476765
0.33193865873197526
3.2968276493476765
0.9893705653467612
1.3825406271457998
3.2968276493476765
0.33193865873197526
3.2968276493476765
0.33516136415655756
2.6748455024032958
2.3525749599450676
0.33193865873197526
3.2968276493476765
0.33516136415655756
2.226889448386358
3.2968276493476765
0.33193865873197526
3.2968276493476765
0.33516136415655756
1.7499290455481802
3.1002426184481573
0.33193865873197526
3.2968276493476765
1.179510185397116
3.290382238498512
0.33193865873197526
3.2968276493476765
3.2968276493476765
3.2968276493476765
0.5091874570840009
1.8111604486152437
2.6103913939116503
0.33193865873197526
3.2968276493476765
1.1376150148775461
1.3986541542687112
0.33193865873197526
1.5694575417715724
0.41572899977111466
2.7425223163195236
2.9552208743419546
0.33193865873197526
3.2968276493476765
0.3867246509498741
1.1601739528496224
3.2968276493476765
1.2214053559166858
1.6532478828107118
3.2968276493476765
0.33193865873197526
3.2968276493476765
1.1924010070954452
3.029343099107347
0.33516136415655756
3.2968276493476765
0.33516136415655756
3.2291508354314487
2.0109681849393453
0.3706111238269627
3.2968276493476765
0.33516136415655756
3.2968276493476765
1.8304966811627372
0.3673884184023804
3.2968276493476765
0.33516136415655756
3.2968276493476765
1.9110643167772945
0.33193865873197526
3.2968276493476765
0.41250629434653235
2.3364614328221562
3.2968276493476765
0.33516136415655756
3.2968276493476765
0.33516136415655756
2.7489677271686883
2.4492561226825362
1.405099565117876
3.2968276493476765
0.33193865873197526
3.2968276493476765
0.6767681391622797
2.620059510185397
3.0100068665598534
0.33193865873197526
3.2968276493476765
0.45440146486610206
2.1398764019226366
3.2968276493476765
0.33193865873197526
3.2968276493476765
0.41250629434653235
2.0174135957885095
3.2968276493476765
0.33193865873197526
3.2968276493476765
1.2181826504921034
0.7122178988326848
3.2968276493476765
0.33516136415655756
3.2968276493476765
0.6123140306706341
1.711256580453193
3.2968276493476765
0.33193865873197526
3.029343099107347
2.2720073243305103
0.32871595330739295
3.2968276493476765
0.37383382925154496
2.971334401464866
2.1946623941405354
0.32871595330739295
3.2968276493476765
0.7186633096818493
1.4566628519111924
3.2968276493476765
0.33193865873197526
3.2968276493476765
1.2246280613412681
1.5597894254978255
3.2968276493476765
0.33516136415655756
3.2968276493476765
1.3503135728999769
0.3770565346761272
3.2968276493476765
0.33516136415655756
3.1904783703364616
2.603945983062485
2.259116502632181
0.33193865873197526
3.2968276493476765
0.33516136415655756
2.9068802929732205
2.197885099565118
0.33193865873197526
3.2968276493476765
0.6445410849164569
1.2504097047379261
1.485667200732433
3.2968276493476765
0.33193865873197526
3.0680155642023346
2.4653696498054476
0.33193865873197526
3.2968276493476765
0.8862439917601281
0.8669077592126344
3.2968276493476765
0.33193865873197526
3.24526436255436
1.940068665598535
0.33193865873197526
3.2968276493476765
0.3867246509498741
1.8466102082856488
3.2968276493476765
0.33193865873197526
3.2968276493476765
0.7089951934081026
1.395431448844129
3.2968276493476765
0.33516136415655756
3.2968276493476765
1.1601739528496224
0.9506981002517738
3.2968276493476765
0.33193865873197526
3.2968276493476765
0.5833096818493934
1.530785076676585
3.2968276493476765
0.33193865873197526
3.2968276493476765
1.1086106660563058
0.7508903639276722
3.2968276493476765
0.33516136415655756
3.2968276493476765
1.3986541542687112
0.3706111238269627
3.2968276493476765
0.33516136415655756
2.594277866788739
3.2968276493476765
0.32871595330739295
3.2968276493476765
0.33516136415655756
3.2968276493476765
1.031265735866331
0.3673884184023804
3.2968276493476765
0.40928358892195005
1.3245319295033189
3.2968276493476765
0.33516136415655756
2.645841153582055
3.2968276493476765
0.33193865873197526
3.0035614557106887
2.7876401922636758
0.33193865873197526
3.2968276493476765
1.0377111467154954
0.6187594415197984
3.2968276493476765
0.33193865873197526
3.055124742504005
2.101203936827649
0.32871595330739295
3.2968276493476765
1.2633005264362553
0.33838406958113987
3.2968276493476765
0.5865323872739757
1.949736781872282
3.2968276493476765
0.33516136415655756
2.6619546807049663
3.2968276493476765
0.33193865873197526
3.2968276493476765
1.7499290455481802
0.32871595330739295
3.2968276493476765
0.33516136415655756
2.0560860608834974
3.2968276493476765
0.33193865873197526
3.2613778896772714
1.8433875028610665
0.33516136415655756
3.2968276493476765
0.48340581368734264
2.3880247196154722
3.2968276493476765
0.33193865873197526
3.200146486610208
2.3074570840009154
0.33193865873197526
3.2968276493476765
1.2987502861066604
0.3706111238269627
3.2968276493476765
0.33193865873197526
3.142137788967727
2.052863355458915
0.33193865873197526
3.2968276493476765
0.7508903639276722
1.0280430304417487
3.2968276493476765
0.33193865873197526
3.2968276493476765
1.6500251773861294
0.32227054245822845
3.2968276493476765
0.8572396429388875
0.9668116273746853
3.2968276493476765
0.40928358892195005
1.3148638132295718
0.33193865873197526
3.2968276493476765
3.2968276493476765
1.4824444953078508
0.32871595330739295
3.2968276493476765
3.2968276493476765
0.7122178988326848
3.2968276493476765
1.3374227512016479
0.3802792401007095
1.6468024719615473
0.33193865873197526
2.7973083085374224
1.8304966811627372
0.32549324788281064
0.33193865873197526
1.4018768596932936
1.7821560997940031
0.32871595330739295
2.1205401693751433
1.7434836346990157
3.2968276493476765
3.2968276493476765
3.2968276493476765
0.32871595330739295
2.4041382467383836
0.32871595330739295
0.32871595330739295
0.32549324788281064
0.32871595330739295
0.4737376974135958
1.7402609292744335
0.32871595330739295
3.2968276493476765
1.4953353170061798
0.9474753948271916
3.2968276493476765
0.32871595330739295
3.2968276493476765
1.2439642938887616
1.5275623712520026
3.2968276493476765
0.33193865873197526
3.1163561455710687
3.209814602883955
0.32871595330739295
3.2968276493476765
1.5952391851682308
1.2536324101625085
3.2968276493476765
0.33193865873197526
2.8456488899061565
3.2968276493476765
0.33193865873197526
3.290382238498512
2.584609750514992
0.33193865873197526
3.2968276493476765
1.1118333714808881
0.7670038910505836
3.2968276493476765
0.5414145113298238
2.155989929045548
3.2968276493476765
0.33193865873197526
2.929439230945296
0.3770565346761272
3.2968276493476765
0.33193865873197526
2.7844174868390934
3.2968276493476765
0.32871595330739295
0.34482948043030437
3.2968276493476765
0.34482948043030437
0.32871595330739295
0.32871595330739295
0.33516136415655756
3.2968276493476765
1.3696498054474708
1.8079377431906614
3.2968276493476765
0.33193865873197526
3.2968276493476765
1.8111604486152437
0.3802792401007095
3.2968276493476765
0.34160677500572206
2.5266010528725107
3.2968276493476765
0.33516136415655756
3.277491416800183
2.716740672922865
0.34160677500572206
3.2968276493476765
0.5349691004806592
2.971334401464866
3.2968276493476765
0.33193865873197526
3.24526436255436
2.7747493705653463
0.33193865873197526
3.267823300526436
2.2945662623025864
0.34482948043030437
3.2968276493476765
0.9797024490730144
0.7089951934081026
3.2968276493476765
1.0183749141680019
0.37383382925154496
3.2968276493476765
0.3835019455252918
1.6822522316319524
3.2968276493476765
0.33516136415655756
3.064792858777752
3.2968276493476765
0.32871595330739295
3.2968276493476765
2.133430991073472
0.33838406958113987
3.2968276493476765
1.0087067978942548
0.3770565346761272
3.2968276493476765
0.33193865873197526
2.707072556649119
0.32549324788281064
0.32549324788281064
3.2968276493476765
2.7360769054703593
0.32871595330739295
3.2968276493476765
1.214959945067521
1.4631082627603569
3.2968276493476765
0.33193865873197526
2.710295262073701
3.2968276493476765
0.32871595330739295
3.2968276493476765
1.475999084458686
0.3480521858548867
3.2968276493476765
0.33193865873197526
2.0689768825818264
3.2968276493476765
0.33193865873197526
2.6748455024032958
0.3544975967040513
2.043195239185168
3.2968276493476765
3.2968276493476765
3.2968276493476765
0.40928358892195005
1.872391851682307
3.2968276493476765
0.33193865873197526
2.9262165255207138
2.710295262073701
0.32871595330739295
3.2968276493476765
0.32871595330739295
1.076383611810483
3.2968276493476765
0.33516136415655756
2.039972533760586
0.32227054245822845
0.32549324788281064
0.32227054245822845
0.32227054245822845
3.2968276493476765
0.8056763561455711
2.1495445181963837
3.2968276493476765
0.7992309452964065
0.32227054245822845
3.2968276493476765
0.3770565346761272
2.9101029983978024
3.2968276493476765
0.33193865873197526
3.0712382696269165
3.2968276493476765
0.32871595330739295
3.084129091325246
3.2968276493476765
0.32871595330739295
3.2968276493476765
2.555605401693751
0.32871595330739295
3.2968276493476765
0.9152483405813686
1.102165255207141
3.2968276493476765
0.5768642710002289
1.6854749370565345
3.2968276493476765
0.33193865873197526
2.368688487067979
3.155028610666056
0.32871595330739295
3.2968276493476765
1.2729686427100022
0.37383382925154496
0.32871595330739295
3.2968276493476765
0.5188555733577477
2.594277866788739
0.37383382925154496
1.9207324330510414
3.2968276493476765
0.32549324788281064
3.2968276493476765
1.1150560769054703
0.7637811856260013
3.2968276493476765
0.33193865873197526
2.220444037537194
2.9906706340123597
0.33193865873197526
3.2968276493476765
1.359981689173724
0.3770565346761272
0.32871595330739295
1.1666193636987867
0.33193865873197526
0.33516136415655756
2.4138063630121307
2.310679789425498
0.32871595330739295
3.2968276493476765
0.6896589608606087
1.3116411078049897
3.2968276493476765
0.32871595330739295
3.28715953307393
2.1592126344701303
0.32871595330739295
0.32871595330739295
3.2968276493476765
1.0087067978942548
0.7089951934081026
3.2968276493476765
0.33193865873197526
2.6748455024032958
0.32871595330739295
3.0390112153810938
1.076383611810483
0.7122178988326848
3.2968276493476765
0.33193865873197526
2.9455527580682075
1.836942092011902
0.3480521858548867
3.2968276493476765
3.2968276493476765
0.5285236896314945
3.084129091325246
1.872391851682307
0.351274891279469
1.179510185397116
0.7927855344472419
3.2968276493476765
0.32871595330739295
3.2968276493476765
0.33193865873197526
2.5588281071183334
1.6758068207827879
0.37383382925154496
3.2968276493476765
0.32871595330739295
3.1518059052414737
1.7434836346990157
0.6542092011902036
3.2968276493476765
0.33193865873197526
3.2968276493476765
0.33193865873197526
2.935884641794461
2.0464179446097504
0.3706111238269627
3.2968276493476765
0.32871595330739295
3.2968276493476765
1.3180865186541542
1.0731609063859004
3.1518059052414737
0.34482948043030437
3.2968276493476765
0.33193865873197526
2.9874479285877773
0.4350652323186084
2.758635843442435
2.259116502632181
0.37383382925154496
3.2968276493476765
0.32549324788281064
3.2968276493476765
0.32871595330739295
3.2968276493476765
2.8134218356603338
3.2968276493476765
0.33193865873197526
0.7315541313801784
0.32871595330739295
3.2968276493476765
0.32871595330739295
3.2968276493476765
1.2181826504921034
1.5082261387045088
2.939107347219043
0.3770565346761272
3.2968276493476765
0.32871595330739295
3.2968276493476765
0.32871595330739295
0.32871595330739295
0.32871595330739295
0.32871595330739295
0.32871595330739295
0.32871595330739295
0.32871595330739295
0.32871595330739295
0.32871595330739295
3.2968276493476765
3.2517097734035247
3.2968276493476765
3.2968276493476765
0.32871595330739295
3.2291508354314487
1.031265735866331
1.7499290455481802
3.2968276493476765
0.32871595330739295
3.2968276493476765
0.32871595330739295
3.2968276493476765
0.32871595330739295
3.2968276493476765
0.33193865873197526
3.0776836804760817
0.9120256351567865
2.368688487067979
1.6177981231403067
3.2968276493476765
0.33516136415655756
3.2968276493476765
3.2968276493476765
3.2968276493476765
0.6671000228885328
2.7328542000457765
1.8079377431906614
2.114094758525978
3.2968276493476765
0.3770565346761272
3.2968276493476765
0.33516136415655756
3.2968276493476765
0.32871595330739295
3.2968276493476765
0.32871595330739295
3.2968276493476765
0.32871595330739295
3.2968276493476765
0.3641657129777981
2.829535362783245
1.4018768596932936
1.5404531929503318
2.951998168917372
0.3770565346761272
3.2968276493476765
0.33193865873197526
1.5050034332799267
1.3213092240787365
3.2968276493476765
0.34160677500572206
3.2968276493476765
0.32549324788281064
3.2968276493476765
0.32871595330739295
3.2968276493476765
0.32871595330739295
3.2968276493476765
0.33193865873197526
3.17436484321355
0.8797985809109636
2.2011078049897
2.2881208514534217
0.6928816662851911
3.2968276493476765
0.34160677500572206
3.2968276493476765
0.32871595330739295
3.2968276493476765
0.33193865873197526
3.1518059052414737
0.9700343327992675
1.7628198672465094
2.8359807736324103
1.1118333714808881
3.2968276493476765
0.32871595330739295
3.2968276493476765
0.32871595330739295
3.2968276493476765
0.32871595330739295
3.2968276493476765
0.6058686198214694
3.17436484321355
1.04415655756466
1.7789333943694208
2.594277866788739
0.3770565346761272
3.2968276493476765
0.32871595330739295
3.2968276493476765
0.32871595330739295
3.2968276493476765
0.33193865873197526
2.942330052643625
1.5114488441290912
1.4147676813916226
3.2968276493476765
0.32871595330739295
3.2968276493476765
0.33193865873197526
3.2968276493476765
0.33193865873197526
3.029343099107347
1.2697459372854198
1.6274662394140536
3.2968276493476765
0.3480521858548867
3.2968276493476765
0.32871595330739295
3.2968276493476765
0.351274891279469
3.2968276493476765
1.031265735866331
1.7950469214923324
3.2968276493476765
0.32871595330739295
3.2968276493476765
0.32871595330739295
3.2388189517051957
0.9635889219501029
2.971334401464866
1.7015884641794459
0.32871595330739295
3.2968276493476765
2.4975967040512703
0.32549324788281064
3.2968276493476765
0.3480521858548867
3.2968276493476765
1.4373266193636987
1.1086106660563058
2.259116502632181
1.9980773632410163
0.32871595330739295
0.3835019455252918
3.2968276493476765
