2021-03-28_16:25:11.664696
time(s)	neutral(raw)	distress(raw)	frequency(Hz)	neutral(mag)	distress(mag)
0	3.2968276493476765	0.32549324788281064	0.0	8095.900096131838	8842.65572899977
0.002	3.2968276493476765	0.31904783703364614	0.05	64.97485280951057	450.5074038621216
0.004	3.2968276493476765	0.31904783703364614	0.1	289.9055135495983	74.22534831019115
0.006	3.2968276493476765	0.32227054245822845	0.15000000000000002	556.299663026954	89.3203631867016
0.008	3.2968276493476765	0.32227054245822845	0.2	376.34492075666736	171.57520877445202
0.01	3.2968276493476765	0.32227054245822845	0.25	134.32920758271607	578.4695715065623
0.012	3.2968276493476765	0.32227054245822845	0.30000000000000004	349.3234412676373	342.5942198511487
0.014	3.2968276493476765	0.32227054245822845	0.35000000000000003	404.79846531988	388.9481863274426
0.016	3.2968276493476765	0.32227054245822845	0.4	287.9153458037325	729.8875621122206
0.018000000000000002	1.8530556191348135	0.32227054245822845	0.45	102.15759369294969	167.12060128629145
0.020000000000000004	0.3899473563744564	0.32227054245822845	0.5	307.6510738586523	608.3866909713776
0.022000000000000006	0.39317006179903863	0.32549324788281064	0.55	127.20471824255328	1116.1783207230026
0.024000000000000007	0.3770565346761272	0.32227054245822845	0.6000000000000001	683.2698885955816	555.4283908601742
0.02600000000000001	0.3835019455252918	0.32549324788281064	0.65	136.36873092184908	144.47405049200108
0.02800000000000001	0.3770565346761272	0.32227054245822845	0.7000000000000001	131.55776999477388	739.8300884788332
0.030000000000000013	0.3899473563744564	0.31904783703364614	0.75	396.3161433239879	416.14374660823245
0.032000000000000015	2.993893339436942	0.32227054245822845	0.8	164.43626649393937	210.25865445313536
0.034000000000000016	1.1956237125200275	0.32227054245822845	0.8500000000000001	392.7337955792148	581.3091802310186
0.03600000000000002	0.3835019455252918	0.32227054245822845	0.9	515.2861256313822	627.0046796362737
0.03800000000000002	0.3802792401007095	0.32227054245822845	0.9500000000000001	450.119694360614	442.68425408268087
0.04000000000000002	0.3835019455252918	0.32227054245822845	1.0	923.5267053659755	505.8581742634254
0.04200000000000002	0.3802792401007095	0.32549324788281064	1.05	109.78542843732707	238.08271455038715
0.044000000000000025	0.3770565346761272	0.32227054245822845	1.1	239.0458899858523	264.4318381922135
0.04600000000000003	0.3802792401007095	0.31904783703364614	1.1500000000000001	541.0075101908927	527.9909606619652
0.04800000000000003	0.3802792401007095	0.32227054245822845	1.2000000000000002	746.0954519193302	399.60564440532073
0.05000000000000003	0.3770565346761272	0.32227054245822845	1.25	591.9099929058926	144.20895308194156
0.05200000000000003	0.37383382925154496	0.32227054245822845	1.3	246.49812074935141	225.16654878693097
0.054000000000000034	0.37383382925154496	0.32227054245822845	1.35	300.1832419480045	731.9138755719156
0.056000000000000036	0.3867246509498741	0.32549324788281064	1.4000000000000001	545.4139017253888	409.2975997758906
0.05800000000000004	0.3802792401007095	0.33838406958113987	1.4500000000000002	596.7320294361325	146.95562606939006
0.06000000000000004	0.3770565346761272	3.2613778896772714	1.5	191.29747353176452	383.8682889158485
0.06200000000000004	0.3770565346761272	3.2613778896772714	1.55	548.9672424543134	327.0511482655472
0.06400000000000004	0.37383382925154496	3.258155184252689	1.6	137.31209177039318	504.3029304620767
0.06600000000000004	0.37383382925154496	3.258155184252689	1.6500000000000001	378.51484517157644	399.6332349327252
0.06800000000000005	0.3706111238269627	3.258155184252689	1.7000000000000002	487.87779977677485	451.02011545381004
0.07000000000000005	0.3770565346761272	3.258155184252689	1.75	260.34299671892126	569.5047228429171
0.07200000000000005	0.37383382925154496	3.254932478828107	1.8	294.6019579748147	473.3668216588734
0.07400000000000005	0.37383382925154496	3.258155184252689	1.85	289.7458577803811	362.2198115269986
0.07600000000000005	0.3802792401007095	3.258155184252689	1.9000000000000001	540.6834579736469	204.83398593351984
0.07800000000000006	0.3770565346761272	3.258155184252689	1.9500000000000002	447.54678902886957	320.4901621970168
0.08000000000000006	0.37383382925154496	3.258155184252689	2.0	259.8310125924317	76.49573799526009
0.08200000000000006	0.37383382925154496	3.2517097734035247	2.0500000000000003	469.85651140990024	227.23349449928511
0.08400000000000006	0.37383382925154496	3.258155184252689	2.1	138.2428402693072	439.83362929926403
0.08600000000000006	0.3706111238269627	3.258155184252689	2.15	66.22560401018649	399.3765351649606
0.08800000000000006	0.37383382925154496	3.258155184252689	2.2	496.51458267623696	846.9929766789203
0.09000000000000007	0.37383382925154496	3.258155184252689	2.25	333.0842370322454	294.99727790241116
0.09200000000000007	0.37383382925154496	3.2517097734035247	2.3000000000000003	170.67063897453778	277.3167748628294
0.09400000000000007	0.3706111238269627	2.9971160448615244	2.35	272.74723292968605	668.9629724922411
0.09600000000000007	0.37383382925154496	0.6961043717097734	2.4000000000000004	704.4934562760657	155.18893901413787
0.09800000000000007	0.3802792401007095	3.0132295719844358	2.45	16.187730969057483	230.72311569758617
0.10000000000000007	0.3770565346761272	3.258155184252689	2.5	214.64990012528105	79.89314428747039
0.10200000000000008	0.37383382925154496	3.254932478828107	2.5500000000000003	427.81089232934676	477.0341336040883
0.10400000000000008	0.37383382925154496	1.9271778439002059	2.6	236.88602880480525	323.7510053719207
0.10600000000000008	0.37383382925154496	0.32871595330739295	2.6500000000000004	249.96720297609832	311.43653535498464
0.10800000000000008	0.37383382925154496	0.32549324788281064	2.7	181.75793864787633	552.1083104260517
0.11000000000000008	0.3770565346761272	0.32871595330739295	2.75	573.9484607110489	208.1007197381406
0.11200000000000009	0.37383382925154496	0.32549324788281064	2.8000000000000003	459.0124380373769	536.2641581244304
0.11400000000000009	0.37383382925154496	0.32227054245822845	2.85	340.1360435168465	281.3312392443405
0.11600000000000009	0.3706111238269627	0.32227054245822845	2.9000000000000004	278.26873130073983	910.3326557499718
0.11800000000000009	0.3770565346761272	0.33516136415655756	2.95	178.49450593549392	299.14847939373954
0.12000000000000009	0.3770565346761272	0.32227054245822845	3.0	219.3378141298059	362.40302935373785
0.1220000000000001	0.37383382925154496	0.32549324788281064	3.0500000000000003	754.4053064313931	256.6693855899157
0.1240000000000001	0.37383382925154496	0.32871595330739295	3.1	294.43836106454813	175.40203858381565
0.12600000000000008	0.37383382925154496	0.32227054245822845	3.1500000000000004	455.4842138516806	370.0275898133021
0.12800000000000009	0.3867246509498741	0.33193865873197526	3.2	631.6642345533479	357.95521363538813
0.1300000000000001	2.0593087663080794	0.32549324788281064	3.25	498.9431924639679	575.2276989582855
0.1320000000000001	3.2968276493476765	0.32549324788281064	3.3000000000000003	659.2174874084598	220.46979269744628
0.1340000000000001	3.2968276493476765	0.32227054245822845	3.35	362.6529519092364	191.32628076459326
0.1360000000000001	2.371911192492561	0.32227054245822845	3.4000000000000004	540.0703022116381	510.78620561384844
0.1380000000000001	0.6445410849164569	0.33193865873197526	3.45	358.50644543731477	266.6602539297209
0.1400000000000001	2.8972121766994734	0.33193865873197526	3.5	128.7264414870933	123.07012582246257
0.1420000000000001	3.2968276493476765	2.678068207827878	3.5500000000000003	246.85900942469542	313.3393536910571
0.1440000000000001	3.2968276493476765	0.679990844586862	3.6	161.85113838494996	443.7539776723062
0.1460000000000001	3.2968276493476765	0.32871595330739295	3.6500000000000004	558.8414813714903	645.6554002199827
0.1480000000000001	2.265561913481346	0.32871595330739295	3.7	290.9321458695725	523.1100386725308
0.1500000000000001	0.5156328679331655	0.32549324788281064	3.75	146.04497005670927	351.2038471564943
0.1520000000000001	0.3802792401007095	0.32549324788281064	3.8000000000000003	257.3162603440986	295.2925757050342
0.1540000000000001	0.3770565346761272	0.32549324788281064	3.85	340.51519928932805	282.1943241864904
0.1560000000000001	0.3770565346761272	0.32549324788281064	3.9000000000000004	34.10004143529894	33.97984002999416
0.1580000000000001	0.3706111238269627	0.32227054245822845	3.95	292.63231325140663	493.4048855974217
0.16000000000000011	0.3867246509498741	0.33193865873197526	4.0	750.1359358419198	597.1470257086693
0.16200000000000012	0.3673884184023804	0.32227054245822845	4.05	489.44713366728655	547.0507629600663
0.16400000000000012	0.3802792401007095	0.32549324788281064	4.1000000000000005	272.3742046259554	573.4643731676563
0.16600000000000012	0.37383382925154496	0.32549324788281064	4.15	539.0626532720331	156.86432539456035
0.16800000000000012	0.37383382925154496	0.31904783703364614	4.2	282.019901540775	172.45794377658322
0.17000000000000012	0.3802792401007095	0.32871595330739295	4.25	418.22220739016296	46.926225972853196
0.17200000000000013	0.3706111238269627	0.32227054245822845	4.3	286.56538384364603	412.9012905800897
0.17400000000000013	0.3770565346761272	0.32549324788281064	4.3500000000000005	414.7778370396347	385.63816116425915
0.17600000000000013	0.3706111238269627	0.32227054245822845	4.4	679.8252426239535	290.5821086007119
0.17800000000000013	0.37383382925154496	0.32549324788281064	4.45	399.88441550401103	385.88504913632295
0.18000000000000013	0.3802792401007095	0.32549324788281064	4.5	94.59943806457485	955.1870037653929
0.18200000000000013	0.3770565346761272	0.32871595330739295	4.55	233.93970415143872	520.9044714562888
0.18400000000000014	0.37383382925154496	0.32549324788281064	4.6000000000000005	567.8961897553602	89.3357144840942
0.18600000000000014	0.37383382925154496	0.32549324788281064	4.65	498.7092554645562	565.7159074261561
0.18800000000000014	0.37383382925154496	0.32227054245822845	4.7	96.999208328042	132.94071559124296
0.19000000000000014	0.3706111238269627	0.32549324788281064	4.75	685.9964739287808	545.1446383357913
0.19200000000000014	0.3867246509498741	0.32871595330739295	4.800000000000001	109.88003945111035	354.8555657492184
0.19400000000000014	0.3802792401007095	0.32549324788281064	4.8500000000000005	150.96149296720637	519.7889639985763
0.19600000000000015	0.37383382925154496	0.32549324788281064	4.9	261.4588829577261	607.9299139704262
0.19800000000000015	0.37383382925154496	0.32549324788281064	4.95	235.75377350988438	402.41603995498707
0.20000000000000015	0.3706111238269627	0.32227054245822845	5.0	404.51867150844834	607.6892641830939
0.20200000000000015	0.3706111238269627	0.32871595330739295	5.050000000000001	468.7398047953879	426.72960017049377
0.20400000000000015	0.37383382925154496	0.32549324788281064	5.1000000000000005	598.9685430482199	103.80052217389927
0.20600000000000016	0.37383382925154496	0.32227054245822845	5.15	346.9374474092509	28.273681841877973
0.20800000000000016	0.37383382925154496	0.32549324788281064	5.2	110.25790670928548	366.16484491131166
0.21000000000000016	0.37383382925154496	0.32227054245822845	5.25	321.8593963329821	389.19722996528446
0.21200000000000016	0.3706111238269627	0.31904783703364614	5.300000000000001	473.20988406323164	280.850650701693
0.21400000000000016	0.3706111238269627	0.32227054245822845	5.3500000000000005	95.58180499106444	470.8567904806542
0.21600000000000016	0.3706111238269627	0.32227054245822845	5.4	643.9617246376444	541.4058420204173
0.21800000000000017	0.3706111238269627	0.31904783703364614	5.45	150.9353007804902	267.10170537415473
0.22000000000000017	0.3706111238269627	0.32227054245822845	5.5	117.60186860902085	169.69147901441875
0.22200000000000017	0.3706111238269627	0.33838406958113987	5.550000000000001	62.16839002359638	431.5054124289226
0.22400000000000017	0.3770565346761272	2.107649347676814	5.6000000000000005	490.1763074675876	214.22805686845695
0.22600000000000017	0.37383382925154496	3.258155184252689	5.65	407.75007516477723	535.9349159044879
0.22800000000000017	0.3706111238269627	3.254932478828107	5.7	707.9132789140741	295.1267152355778
0.23000000000000018	0.3706111238269627	3.254932478828107	5.75	339.7919393825871	106.53600326882876
0.23200000000000018	0.3706111238269627	3.2613778896772714	5.800000000000001	260.4284070689224	294.0137486381483
0.23400000000000018	0.3706111238269627	3.258155184252689	5.8500000000000005	289.6701882226847	478.4498906245718
0.23600000000000018	0.3706111238269627	3.258155184252689	5.9	545.1390997062995	268.27792724104046
0.23800000000000018	0.3706111238269627	3.254932478828107	5.95	334.2430361931425	265.033677094092
0.24000000000000019	0.3706111238269627	3.2517097734035247	6.0	444.80812284913657	547.14736488219
0.2420000000000002	0.3706111238269627	3.258155184252689	6.050000000000001	578.6987264324666	483.0124060635625
0.2440000000000002	0.3706111238269627	3.258155184252689	6.1000000000000005	268.76235710407195	90.50844015903768
0.2460000000000002	0.3706111238269627	3.258155184252689	6.15	185.4697841896742	426.83067626432415
0.2480000000000002	0.37383382925154496	3.254932478828107	6.2	681.5177953067952	638.5091536721574
0.25000000000000017	0.3706111238269627	3.2517097734035247	6.25	368.1388460798284	288.0142640803812
0.25200000000000017	0.3706111238269627	3.258155184252689	6.300000000000001	190.92395469047358	252.31207214026583
0.25400000000000017	0.3706111238269627	3.2613778896772714	6.3500000000000005	400.1559644838835	452.99513818656254
0.25600000000000017	0.3706111238269627	3.258155184252689	6.4	139.20057756362004	165.2017043164912
0.2580000000000002	0.37383382925154496	3.258155184252689	6.45	248.35607185062818	385.2888058751194
0.2600000000000002	0.3706111238269627	3.254932478828107	6.5	90.89566079684118	346.93283683497
0.2620000000000002	0.3706111238269627	2.6587319752803844	6.550000000000001	135.64543944788278	416.7197184362619
0.2640000000000002	0.3706111238269627	0.4608468757152666	6.6000000000000005	180.14903623795146	507.16660809336236
0.2660000000000002	0.3673884184023804	0.32549324788281064	6.65	52.56871171660832	34.596068131130764
0.2680000000000002	0.3706111238269627	0.32549324788281064	6.7	174.80262131338122	396.4599141237836
0.2700000000000002	0.3706111238269627	0.33193865873197526	6.75	265.92714454492454	238.88126171188983
0.2720000000000002	0.3706111238269627	0.32549324788281064	6.800000000000001	232.8330843154319	218.243863788226
0.2740000000000002	0.3706111238269627	0.32549324788281064	6.8500000000000005	449.92051350075087	446.41868485853894
0.2760000000000002	0.3673884184023804	0.33193865873197526	6.9	398.6876536658242	710.1030399002817
0.2780000000000002	0.3673884184023804	0.32227054245822845	6.95	201.94619982393687	650.2759074232487
0.2800000000000002	0.3673884184023804	0.32227054245822845	7.0	415.41034113281	218.85107122007634
0.2820000000000002	0.3673884184023804	0.32549324788281064	7.050000000000001	358.1981589839661	338.1387068345033
0.2840000000000002	0.3673884184023804	0.32549324788281064	7.1000000000000005	52.21619321958146	179.3762269186088
0.2860000000000002	0.3706111238269627	0.33516136415655756	7.15	103.16185851078356	163.170562162751
0.2880000000000002	0.3673884184023804	0.32227054245822845	7.2	209.72323256012123	321.82998958103093
0.2900000000000002	0.3706111238269627	0.32227054245822845	7.25	508.22097522109937	229.08268131943763
0.2920000000000002	0.3673884184023804	0.32871595330739295	7.300000000000001	231.05083804530372	589.0940686019602
0.2940000000000002	0.3673884184023804	0.32227054245822845	7.3500000000000005	270.9456592504201	294.7479123816487
0.2960000000000002	0.3673884184023804	0.32549324788281064	7.4	610.5610506131653	111.82226598381804
0.2980000000000002	0.3673884184023804	0.32871595330739295	7.45	222.44719174425387	155.64263250008602
0.3000000000000002	0.3673884184023804	0.32227054245822845	7.5	543.6192447521735	529.2141138704933
0.3020000000000002	0.3673884184023804	0.32871595330739295	7.550000000000001	115.36358635155096	366.20820099395553
0.3040000000000002	0.3706111238269627	0.32227054245822845	7.6000000000000005	425.0908024086632	556.6701801840808
0.3060000000000002	0.3706111238269627	0.32227054245822845	7.65	270.9126587404746	142.87044929607168
0.3080000000000002	0.3706111238269627	0.32871595330739295	7.7	277.7299187246518	395.2205625665987
0.3100000000000002	0.3706111238269627	0.32227054245822845	7.75	110.73717776819612	168.14126234377463
0.3120000000000002	0.3673884184023804	0.32871595330739295	7.800000000000001	356.30694811515	235.66279529145552
0.3140000000000002	0.3706111238269627	0.32549324788281064	7.8500000000000005	236.48003002285316	371.87507180996954
0.3160000000000002	0.3706111238269627	0.32549324788281064	7.9	164.36097434247822	177.55650445037767
0.3180000000000002	0.3802792401007095	0.33516136415655756	7.95	375.68109947495907	130.93390251213916
0.32000000000000023	0.3673884184023804	0.9023575188830396	8.0	243.0003743258038	593.9411492747893
0.32200000000000023	0.3706111238269627	2.359020370794232	8.05	492.7972995211749	160.52145309246146
0.32400000000000023	0.3673884184023804	0.34160677500572206	8.1	262.7941106267457	616.3296015477605
0.32600000000000023	0.3706111238269627	0.32549324788281064	8.15	300.5789901275915	328.6839727684688
0.32800000000000024	0.3673884184023804	0.32871595330739295	8.200000000000001	328.6200902795123	132.00927919608446
0.33000000000000024	0.3770565346761272	0.32227054245822845	8.25	429.3703020280992	471.8592285906504
0.33200000000000024	0.3673884184023804	0.32549324788281064	8.3	256.46539111355554	458.72558292823214
0.33400000000000024	0.3706111238269627	0.32227054245822845	8.35	591.2941858920516	117.05368528773197
0.33600000000000024	0.3673884184023804	0.32549324788281064	8.4	59.01947978972987	384.9126805806802
0.33800000000000024	0.3706111238269627	0.32227054245822845	8.450000000000001	163.8138703783462	155.89958015893515
0.34000000000000025	0.3802792401007095	0.32871595330739295	8.5	414.9081234747235	518.7246729429477
0.34200000000000025	2.655509269855802	0.32549324788281064	8.55	263.4610916103696	548.3639936582467
0.34400000000000025	3.2968276493476765	0.32227054245822845	8.6	487.18470751623335	11.344176525081725
0.34600000000000025	3.2968276493476765	0.32549324788281064	8.65	168.35442509970517	365.83225346889355
0.34800000000000025	2.0206363012130923	0.32227054245822845	8.700000000000001	275.3701224535155	279.23022362426434
0.35000000000000026	0.6413183794918745	0.32871595330739295	8.75	193.8597287979484	335.865471594761
0.35200000000000026	3.0132295719844358	0.32871595330739295	8.8	308.40271053369264	405.83589513652237
0.35400000000000026	3.2968276493476765	0.32227054245822845	8.85	291.6659759576409	377.7999398502867
0.35600000000000026	3.2968276493476765	0.32227054245822845	8.9	92.18120828269507	240.39490316506158
0.35800000000000026	3.2968276493476765	0.32227054245822845	8.950000000000001	116.41172786323251	184.44582229912896
0.36000000000000026	2.226889448386358	0.32549324788281064	9.0	157.05541218062243	344.8253292692568
0.36200000000000027	3.2968276493476765	0.32227054245822845	9.05	125.4974950473924	332.5290669909619
0.36400000000000027	3.2968276493476765	0.32549324788281064	9.1	110.17227637624032	192.71659193242652
0.36600000000000027	3.2968276493476765	0.32549324788281064	9.15	556.2207259828119	114.2855488396337
0.36800000000000027	3.2968276493476765	0.32227054245822845	9.200000000000001	173.44662269552828	620.1442036852799
0.3700000000000003	2.529823758297093	0.31904783703364614	9.25	323.26987809947406	448.0378101165485
0.3720000000000003	1.053824673838407	0.32227054245822845	9.3	5.365915256463221	231.99430516118235
0.3740000000000003	3.2968276493476765	0.32227054245822845	9.35	274.85611895951087	100.7865911340825
0.3760000000000003	2.7844174868390934	0.32227054245822845	9.4	274.5125046604809	79.3686047245278
0.3780000000000003	0.8379034103913939	0.32227054245822845	9.450000000000001	128.17271838451285	308.6082083290171
0.3800000000000003	0.3706111238269627	0.32227054245822845	9.5	62.72034033252228	181.34726362674377
0.3820000000000003	0.3802792401007095	0.32227054245822845	9.55	125.45779005028712	220.6418706234027
0.3840000000000003	1.7015884641794459	0.32227054245822845	9.600000000000001	249.97221072944802	374.1162626062431
0.3860000000000003	0.8540169375143053	0.32227054245822845	9.65	350.2870715130357	393.68105094290763
0.3880000000000003	0.37383382925154496	0.32227054245822845	9.700000000000001	374.01932768339907	528.9611687333162
0.3900000000000003	0.3673884184023804	0.31904783703364614	9.75	288.3814552015098	183.07778021875995
0.3920000000000003	0.3706111238269627	0.32227054245822845	9.8	239.56370015163117	491.5795452479328
0.3940000000000003	0.37383382925154496	0.31904783703364614	9.850000000000001	338.3491465161882	439.18477077453826
0.3960000000000003	0.3706111238269627	0.32227054245822845	9.9	248.60850087433715	310.430520299656
0.3980000000000003	0.3673884184023804	0.32227054245822845	9.950000000000001	362.2421003283294	501.9655413774432
0.4000000000000003	0.3673884184023804	0.32227054245822845	10.0	292.32473302371295	300.09944165906336
0.4020000000000003	0.3641657129777981	0.32227054245822845	10.05	113.72047746577476	103.13413267294482
0.4040000000000003	0.37383382925154496	0.32227054245822845	10.100000000000001	74.92685398249283	329.2249244229958
0.4060000000000003	0.3706111238269627	0.32227054245822845	10.15	320.7844025440463	279.1642302006386
0.4080000000000003	0.3673884184023804	0.31904783703364614	10.200000000000001	252.82162491551898	424.6500029349873
0.4100000000000003	0.3641657129777981	0.32227054245822845	10.25	432.057825681902	74.34185492906944
0.4120000000000003	0.3609430075532158	0.32227054245822845	10.3	293.65020642570494	243.10532812737472
0.4140000000000003	0.3706111238269627	0.32227054245822845	10.350000000000001	404.55643640771615	126.40501855037631
0.4160000000000003	0.3641657129777981	0.32227054245822845	10.4	266.3314618309071	112.63834437362726
0.4180000000000003	0.3673884184023804	0.32227054245822845	10.450000000000001	138.587520873906	189.193995051835
0.4200000000000003	0.3673884184023804	0.32227054245822845	10.5	333.768558618257	236.19881410780556
0.4220000000000003	0.3641657129777981	0.32227054245822845	10.55	66.35133805561375	24.323836590651155
0.4240000000000003	0.3641657129777981	0.32871595330739295	10.600000000000001	486.20005501840484	682.9519381294873
0.4260000000000003	0.3641657129777981	0.32227054245822845	10.65	83.63720861043969	560.9271360578581
0.4280000000000003	0.3673884184023804	0.32227054245822845	10.700000000000001	256.34594173992843	59.39566553971801
0.4300000000000003	0.3641657129777981	0.32227054245822845	10.75	284.1112608414202	255.8521356986725
0.43200000000000033	0.3641657129777981	0.32227054245822845	10.8	276.45027577024496	74.91490113724011
0.43400000000000033	0.3609430075532158	0.33516136415655756	10.850000000000001	174.21103327169024	146.022758160817
0.43600000000000033	0.3673884184023804	2.133430991073472	10.9	415.2562989527958	149.5381488103386
0.43800000000000033	0.3641657129777981	3.258155184252689	10.950000000000001	292.1618150923219	221.4179298973924
0.44000000000000034	0.3641657129777981	3.254932478828107	11.0	56.29763597625379	83.75883123926799
0.44200000000000034	0.3641657129777981	3.258155184252689	11.05	118.14087368630508	364.6377626881329
0.44400000000000034	0.3641657129777981	3.258155184252689	11.100000000000001	443.9466401951282	376.64054796499397
0.44600000000000034	0.3641657129777981	3.2613778896772714	11.15	298.07248553259626	125.71376825521477
0.44800000000000034	0.3641657129777981	3.254932478828107	11.200000000000001	117.5258763794561	248.53633122867546
0.45000000000000034	0.3673884184023804	3.2517097734035247	11.25	134.36655574184488	186.68747288241255
0.45200000000000035	0.3641657129777981	3.254932478828107	11.3	136.71812378550533	389.13216599141555
0.45400000000000035	0.3641657129777981	3.258155184252689	11.350000000000001	185.35588627647792	200.75704924850325
0.45600000000000035	0.3673884184023804	3.2613778896772714	11.4	191.17885350854507	312.0630734949215
0.45800000000000035	0.3641657129777981	3.258155184252689	11.450000000000001	362.9220375216146	165.09920870917543
0.46000000000000035	0.3641657129777981	3.254932478828107	11.5	186.74994799946168	244.69661500481715
0.46200000000000035	0.3641657129777981	3.2517097734035247	11.55	416.31276133884205	249.85972575006593
0.46400000000000036	0.3641657129777981	1.994854657816434	11.600000000000001	216.5801571573878	187.89068186694004
0.46600000000000036	0.3706111238269627	0.32871595330739295	11.65	126.02754505646226	359.3635325231815
0.46800000000000036	0.3641657129777981	0.32549324788281064	11.700000000000001	29.571090882690516	455.4013989569922
0.47000000000000036	0.3673884184023804	0.32549324788281064	11.75	64.4485871089725	182.56788207962123
0.47200000000000036	0.3673884184023804	0.32549324788281064	11.8	180.10201938937567	253.76202420024612
0.47400000000000037	0.3641657129777981	0.32549324788281064	11.850000000000001	190.80562143955572	93.54589181994774
0.47600000000000037	0.3641657129777981	0.32227054245822845	11.9	292.77237962326024	133.73694092809856
0.47800000000000037	0.3641657129777981	0.32549324788281064	11.950000000000001	595.6869208036326	51.15025385575772
0.48000000000000037	0.3609430075532158	0.32549324788281064	12.0	283.49868450185005	177.28151993639995
0.4820000000000004	0.3609430075532158	0.32227054245822845	12.05	194.41816837331623	71.80950132159111
0.4840000000000004	0.3641657129777981	0.32227054245822845	12.100000000000001	124.26559896595568	138.11686567022284
0.4860000000000004	0.3641657129777981	0.32549324788281064	12.15	408.53357233043073	537.5175849121081
0.4880000000000004	0.37383382925154496	0.32549324788281064	12.200000000000001	91.43167783801874	238.22067633189567
0.4900000000000004	0.3867246509498741	0.32227054245822845	12.25	268.5398847807248	138.71356038469995
0.4920000000000004	0.3706111238269627	0.32549324788281064	12.3	657.4459729040509	107.974627610052
0.4940000000000004	0.3641657129777981	0.32549324788281064	12.350000000000001	129.54815023233118	276.01126371524657
0.4960000000000004	0.37383382925154496	0.32227054245822845	12.4	231.51931778940943	117.48578051521086
0.4980000000000004	1.8304966811627372	0.33838406958113987	12.450000000000001	268.5661757620979	235.9112974889195
0.5000000000000003	3.2968276493476765	0.9958159761959258	12.5	93.76175043939416	176.1059022292572
0.5020000000000003	3.2968276493476765	3.2613778896772714	12.55	221.83173316685458	378.846004535833
0.5040000000000003	2.31390249485008	3.254932478828107	12.600000000000001	119.6034649181356	148.16277425715495
0.5060000000000003	0.6445410849164569	3.254932478828107	12.65	112.51140950109591	224.28575963784456
0.5080000000000003	0.4705149919890135	1.2214053559166858	12.700000000000001	248.98955065093753	309.43057565200183
0.5100000000000003	0.3641657129777981	0.32549324788281064	12.75	328.2504122989131	105.7390452190312
0.5120000000000003	0.3641657129777981	0.33193865873197526	12.8	210.14901276170113	171.20753212490487
0.5140000000000003	0.3609430075532158	0.32871595330739295	12.850000000000001	149.8734501074951	120.6342383559053
0.5160000000000003	0.3706111238269627	0.32549324788281064	12.9	188.92577804447137	344.6969613721834
0.5180000000000003	0.3641657129777981	0.32549324788281064	12.950000000000001	127.34270461980142	418.89294155683456
0.5200000000000004	0.3673884184023804	0.33516136415655756	13.0	285.28777270556577	274.2547758062023
0.5220000000000004	0.3641657129777981	2.31390249485008	13.05	164.09692457153838	378.6591380321418
0.5240000000000004	0.37383382925154496	3.254932478828107	13.100000000000001	24.963965975964904	87.69045687492118
0.5260000000000004	2.423474479285878	2.8843213550011444	13.15	581.3388821295766	255.72854389136435
0.5280000000000004	3.2968276493476765	0.6380956740672923	13.200000000000001	224.95987817692037	434.53118318876307
0.5300000000000004	3.2968276493476765	0.32871595330739295	13.25	371.61023847672874	84.52962955639022
0.5320000000000004	3.2968276493476765	0.32871595330739295	13.3	184.79883007563583	116.13459984389148
0.5340000000000004	3.2968276493476765	0.32549324788281064	13.350000000000001	103.01933062312455	390.4215238402814
0.5360000000000004	3.2968276493476765	0.32227054245822845	13.4	102.60079422142806	215.35112338929716
0.5380000000000004	3.2968276493476765	0.33193865873197526	13.450000000000001	432.60380904411596	288.6555771040827
0.5400000000000004	3.2968276493476765	0.32227054245822845	13.5	319.70243519612836	659.2061485642902
0.5420000000000004	2.1398764019226366	0.32549324788281064	13.55	307.00579750424964	178.8155610874969
0.5440000000000004	0.3802792401007095	0.32549324788281064	13.600000000000001	123.02243925136037	261.489937313288
0.5460000000000004	0.3673884184023804	0.32227054245822845	13.65	262.13349529028005	302.76526649052283
0.5480000000000004	0.3641657129777981	0.33516136415655756	13.700000000000001	270.80986748326166	91.08953485640598
0.5500000000000004	0.3641657129777981	2.8746532387273973	13.75	191.42044174420786	169.8391427892164
0.5520000000000004	0.3641657129777981	3.254932478828107	13.8	93.68729233703287	113.9823873374885
0.5540000000000004	0.3706111238269627	2.6909590295262076	13.850000000000001	180.43774518926193	191.89617325703034
0.5560000000000004	0.3673884184023804	0.4640695811398489	13.9	491.1514309281616	84.1025442586694
0.5580000000000004	0.3641657129777981	0.32227054245822845	13.950000000000001	136.1601242579613	259.94049134528336
0.5600000000000004	0.3641657129777981	0.32871595330739295	14.0	91.88055516895278	256.4352768845637
0.5620000000000004	0.3641657129777981	0.32871595330739295	14.05	152.9698010002251	124.41999709249266
0.5640000000000004	0.3641657129777981	0.32227054245822845	14.100000000000001	198.04590253144656	469.58033020194176
0.5660000000000004	0.3641657129777981	0.33193865873197526	14.15	112.3485307174511	407.6010685167361
0.5680000000000004	0.3641657129777981	0.32549324788281064	14.200000000000001	171.99638256333427	131.84889424349805
0.5700000000000004	0.3609430075532158	0.32549324788281064	14.25	306.53180793316443	372.17479489379474
0.5720000000000004	0.3641657129777981	0.32549324788281064	14.3	207.54394131752045	169.29262834424358
0.5740000000000004	0.3641657129777981	0.32549324788281064	14.350000000000001	238.9215247576361	174.4342156439547
0.5760000000000004	0.3641657129777981	0.33193865873197526	14.4	328.9132512927892	91.95301369504651
0.5780000000000004	0.3641657129777981	0.5027420462348363	14.450000000000001	355.147391767069	481.13948720920166
0.5800000000000004	0.3641657129777981	0.32549324788281064	14.5	180.06675172378777	211.57365542618308
0.5820000000000004	0.3673884184023804	0.32227054245822845	14.55	163.97543045171932	405.3582654274169
0.5840000000000004	0.3641657129777981	0.33516136415655756	14.600000000000001	144.5699625038555	209.78007314927427
0.5860000000000004	0.3641657129777981	0.8797985809109636	14.65	85.46325493127566	118.84966226991655
0.5880000000000004	0.3641657129777981	3.254932478828107	14.700000000000001	336.5087089565293	329.9978953165752
0.5900000000000004	0.3609430075532158	3.258155184252689	14.75	272.3671917366553	463.86805555960245
0.5920000000000004	0.3673884184023804	1.2278507667658503	14.8	353.9253134028985	221.2413095001298
0.5940000000000004	0.3641657129777981	0.33516136415655756	14.850000000000001	260.7493224948097	185.89227018056914
0.5960000000000004	0.3641657129777981	0.32227054245822845	14.9	162.57888353109735	380.3256561233295
0.5980000000000004	0.3673884184023804	0.32549324788281064	14.950000000000001	193.66601697237098	109.45154971305071
0.6000000000000004	0.3706111238269627	0.32549324788281064	15.0	182.34305554749028	314.75741404865715
0.6020000000000004	1.67902952620737	0.32227054245822845	15.05	97.67535736049177	193.06059860180486
0.6040000000000004	3.2968276493476765	0.33193865873197526	15.100000000000001	210.52635889579804	34.39931699063689
0.6060000000000004	3.2968276493476765	0.32549324788281064	15.15	168.0723576348306	234.4511152095333
0.6080000000000004	2.4975967040512703	0.32549324788281064	15.200000000000001	243.04976351691639	226.0198060153624
0.6100000000000004	0.5768642710002289	0.32227054245822845	15.25	66.6305290731869	128.5793268777216
0.6120000000000004	2.7425223163195236	0.32227054245822845	15.3	147.33053048414826	186.20399552682045
0.6140000000000004	3.2968276493476765	0.33516136415655756	15.350000000000001	57.40867693991025	227.84708691346273
0.6160000000000004	3.2968276493476765	1.5404531929503318	15.4	72.15155376944352	173.23603356709486
0.6180000000000004	3.2968276493476765	0.32871595330739295	15.450000000000001	415.6160419952039	306.5977143490077
0.6200000000000004	3.2968276493476765	0.32871595330739295	15.5	270.89018887756623	378.47976614311466
0.6220000000000004	3.2968276493476765	0.32549324788281064	15.55	124.14756321015675	354.95934228174156
0.6240000000000004	3.2968276493476765	0.32871595330739295	15.600000000000001	379.3743468041687	386.5142007022833
0.6260000000000004	3.2968276493476765	0.32549324788281064	15.65	191.9880452137482	104.50862806710713
0.6280000000000004	3.2968276493476765	0.32227054245822845	15.700000000000001	63.76498359048967	328.16853776676095
0.6300000000000004	3.2968276493476765	0.32227054245822845	15.75	18.662151801023107	172.86162143467956
0.6320000000000005	3.2968276493476765	0.32227054245822845	15.8	152.1632966121018	344.1187480405314
0.6340000000000005	3.2968276493476765	0.32549324788281064	15.850000000000001	196.95501898441182	179.75501251454324
0.6360000000000005	3.2968276493476765	0.32871595330739295	15.9	197.50298597493722	420.1991986998616
0.6380000000000005	1.3180865186541542	0.32549324788281064	15.950000000000001	166.54762599583083	164.1954497967069
0.6400000000000005	3.2968276493476765	0.32227054245822845	16.0	10.63365043075117	122.9445167880895
0.6420000000000005	3.2968276493476765	0.33838406958113987	16.05	225.09278570974374	311.49968036785856
0.6440000000000005	3.2968276493476765	2.039972533760586	16.1	167.72094653088394	157.73424144615709
0.6460000000000005	2.475037766079194	3.2613778896772714	16.150000000000002	360.7401681299437	102.20392675215854
0.6480000000000005	0.4286198214694438	3.2517097734035247	16.2	181.24920856491494	140.01766192748124
0.6500000000000005	3.2968276493476765	1.4373266193636987	16.25	303.0607443956439	80.15779412255799
0.6520000000000005	1.711256580453193	0.33516136415655756	16.3	148.427650883373	180.35255658247507
0.6540000000000005	0.3706111238269627	1.5791256580453192	16.35	210.4456561795592	143.63847949535491
0.6560000000000005	0.3641657129777981	2.594277866788739	16.400000000000002	139.09920454208125	383.06621011392565
0.6580000000000005	0.3706111238269627	0.5317463950560769	16.45	369.88281944388933	201.82690672976923
0.6600000000000005	0.3673884184023804	0.32549324788281064	16.5	294.2038342357011	164.43155024901955
0.6620000000000005	0.3641657129777981	0.33193865873197526	16.55	295.3850609405301	245.61396148775282
0.6640000000000005	0.3641657129777981	2.3429068436713205	16.6	283.41827647953244	373.84000524782175
0.6660000000000005	0.3609430075532158	3.258155184252689	16.650000000000002	417.6958609689163	156.48235588744964
0.6680000000000005	0.3641657129777981	3.2484870679789424	16.7	166.8583111807075	200.52918528952762
0.6700000000000005	0.3641657129777981	1.8530556191348135	16.75	328.19265555651873	16.963446502602125
0.6720000000000005	0.3641657129777981	3.2646005951018537	16.8	175.25095719456715	116.60120958691012
0.6740000000000005	0.3609430075532158	3.258155184252689	16.85	81.0054004655223	111.91110355455785
0.6760000000000005	0.3641657129777981	3.258155184252689	16.900000000000002	164.91354890960363	258.4141648676379
0.6780000000000005	0.3609430075532158	3.2484870679789424	16.95	209.4933364957012	198.53917726972446
0.6800000000000005	0.3609430075532158	3.258155184252689	17.0	79.57707505826413	141.42608579711646
0.6820000000000005	0.3641657129777981	3.254932478828107	17.05	234.93870115715646	359.96833969364604
0.6840000000000005	0.3609430075532158	3.2613778896772714	17.1	111.21146367818463	201.68641715239758
0.6860000000000005	0.3673884184023804	3.254932478828107	17.150000000000002	236.80344679631224	201.80376525074973
0.6880000000000005	0.3641657129777981	3.2517097734035247	17.2	57.67547092705788	182.14155960896124
0.6900000000000005	0.3609430075532158	1.6210208285648888	17.25	280.2828447355447	159.86517575773036
0.6920000000000005	0.3641657129777981	0.5575280384527351	17.3	184.08333421264697	382.22067366103215
0.6940000000000005	0.3609430075532158	0.32871595330739295	17.35	249.28057600878705	89.64043574807272
0.6960000000000005	0.3673884184023804	0.32549324788281064	17.400000000000002	100.48937909329298	87.11248136389142
0.6980000000000005	0.3673884184023804	0.32549324788281064	17.45	115.03317309780958	154.55544163840378
0.7000000000000005	0.3641657129777981	0.32549324788281064	17.5	97.42051829363764	368.137401882965
0.7020000000000005	0.3609430075532158	0.32227054245822845	17.55	135.04260291713294	193.48349825503968
0.7040000000000005	0.3609430075532158	0.32227054245822845	17.6	226.2721378383036	161.23979477859103
0.7060000000000005	0.3641657129777981	0.32227054245822845	17.650000000000002	76.31140310620276	114.21201291287119
0.7080000000000005	0.3641657129777981	0.32549324788281064	17.7	196.52943493626105	87.81108075852433
0.7100000000000005	0.3609430075532158	0.32871595330739295	17.75	152.83347140026802	18.376169431281948
0.7120000000000005	0.3609430075532158	0.32227054245822845	17.8	123.0495667890965	157.83113401398236
0.7140000000000005	0.3673884184023804	0.32549324788281064	17.85	52.5069032156011	245.52189571365017
0.7160000000000005	0.3609430075532158	0.32549324788281064	17.900000000000002	147.94117777099788	185.48457066489675
0.7180000000000005	0.3609430075532158	0.32549324788281064	17.95	70.55304236959671	120.88755718635547
0.7200000000000005	0.3609430075532158	0.31904783703364614	18.0	103.72342999910204	283.1311375266192
0.7220000000000005	0.3609430075532158	0.32549324788281064	18.05	110.12427056649165	195.66639465020893
0.7240000000000005	0.37383382925154496	0.32227054245822845	18.1	82.74715779762685	162.28873504359564
0.7260000000000005	2.4975967040512703	0.32227054245822845	18.150000000000002	53.51670695418943	79.77597856873031
0.7280000000000005	3.2968276493476765	0.32871595330739295	18.2	34.84153102272279	130.06546562643447
0.7300000000000005	3.2968276493476765	0.32227054245822845	18.25	299.3056819814034	319.3512813393154
0.7320000000000005	1.7499290455481802	0.32227054245822845	18.3	58.4148142733654	243.29733207351217
0.7340000000000005	0.3673884184023804	0.32549324788281064	18.35	152.38446535720007	239.51190838687862
0.7360000000000005	0.3641657129777981	0.32227054245822845	18.400000000000002	130.3930528771986	130.80953419097625
0.7380000000000005	0.3641657129777981	0.32227054245822845	18.45	91.2576338144775	76.51021412558129
0.7400000000000005	0.3609430075532158	0.32227054245822845	18.5	238.69788424386243	122.77920515465905
0.7420000000000005	0.3706111238269627	0.32227054245822845	18.55	92.0700487354008	159.05063538098383
0.7440000000000005	0.4060608834973678	0.31904783703364614	18.6	201.6936130804309	182.40269354914685
0.7460000000000006	0.3706111238269627	0.32227054245822845	18.650000000000002	101.87436068065576	245.9823424458773
0.7480000000000006	0.3641657129777981	0.32227054245822845	18.7	305.94787827341105	80.80410095509549
0.7500000000000006	0.3609430075532158	0.32227054245822845	18.75	39.218316648890685	95.74306383548922
0.7520000000000006	0.3673884184023804	0.32227054245822845	18.8	374.02444577611345	234.32397947332743
0.7540000000000006	0.3609430075532158	0.31904783703364614	18.85	107.32802938146257	228.976321062364
0.7560000000000006	0.3609430075532158	0.32227054245822845	18.900000000000002	21.59666336102245	281.7830812678628
0.7580000000000006	0.3609430075532158	0.32227054245822845	18.95	152.23389305169724	159.58801499032901
0.7600000000000006	0.3609430075532158	0.31904783703364614	19.0	34.85524272971635	82.60317081844002
0.7620000000000006	0.3641657129777981	0.32227054245822845	19.05	268.67143221820584	128.1048012986049
0.7640000000000006	0.3609430075532158	0.32549324788281064	19.1	58.28530980978464	167.65208471433823
0.7660000000000006	0.3609430075532158	0.32227054245822845	19.150000000000002	73.37042443049712	420.49474228167605
0.7680000000000006	0.3609430075532158	0.31904783703364614	19.200000000000003	137.83942442480028	376.11334715351194
0.7700000000000006	0.3577203021286335	0.32227054245822845	19.25	23.933410599593415	83.50990164670561
0.7720000000000006	0.3577203021286335	0.32549324788281064	19.3	151.77340638335093	81.53973878197701
0.7740000000000006	0.3609430075532158	0.32549324788281064	19.35	233.8770371119276	53.17912800730052
0.7760000000000006	0.3577203021286335	0.32227054245822845	19.400000000000002	230.12835026844803	220.40840152433464
0.7780000000000006	0.3577203021286335	0.31904783703364614	19.450000000000003	46.95364000382047	143.53890901805718
0.7800000000000006	0.3577203021286335	0.32227054245822845	19.5	221.5610963633046	251.30170365369602
0.7820000000000006	0.3609430075532158	0.32549324788281064	19.55	158.26219025797465	109.83188719821655
0.7840000000000006	0.3577203021286335	0.32549324788281064	19.6	57.43973824483357	150.84689454853506
0.7860000000000006	0.3609430075532158	0.32227054245822845	19.650000000000002	208.16219100737956	177.0856566988489
0.7880000000000006	0.3577203021286335	0.31904783703364614	19.700000000000003	260.3886730087594	174.48186872216007
0.7900000000000006	0.3577203021286335	0.33193865873197526	19.75	104.13833125752012	174.71720960834418
0.7920000000000006	0.3609430075532158	0.3641657129777981	19.8	295.2635440431747	125.96734347144147
0.7940000000000006	0.3609430075532158	1.6306889448386357	19.85	110.03673622282955	88.90701028462168
0.7960000000000006	0.3577203021286335	0.32871595330739295	19.900000000000002	225.09904758906455	104.88023484349259
0.7980000000000006	0.3577203021286335	0.32549324788281064	19.950000000000003	179.55525704518877	100.08877735928729
0.8000000000000006	0.3577203021286335	0.33838406958113987	20.0	119.78776077879644	196.81258218877724
0.8020000000000006	0.3577203021286335	2.6909590295262076	20.05	178.85874506291577	171.56480518487908
0.8040000000000006	0.3577203021286335	3.254932478828107	20.1	230.9318673660598	241.08216378730148
0.8060000000000006	0.3577203021286335	3.254932478828107	20.150000000000002	271.0988710236505	119.21823407949336
0.8080000000000006	0.3577203021286335	1.521116960402838	20.200000000000003	211.62147960685573	256.9905424089645
0.8100000000000006	0.3641657129777981	0.33193865873197526	20.25	189.56757665744576	244.06064197840567
0.8120000000000006	0.3577203021286335	0.32549324788281064	20.3	102.64066049578581	123.15623536375259
0.8140000000000006	0.3577203021286335	0.32871595330739295	20.35	18.00080884506425	225.90949878149536
0.8160000000000006	0.3577203021286335	0.32227054245822845	20.400000000000002	283.4869083016022	273.3976633197753
0.8180000000000006	0.3544975967040513	0.31904783703364614	20.450000000000003	179.6365207262586	153.80104352857532
0.8200000000000006	0.3544975967040513	0.33516136415655756	20.5	125.19652699167663	7.746252077442842
0.8220000000000006	0.3577203021286335	1.56623483634699	20.55	79.39612503834839	216.24859109161736
0.8240000000000006	0.3544975967040513	3.258155184252689	20.6	286.7252911896995	125.13670662009737
0.8260000000000006	0.3544975967040513	3.254932478828107	20.650000000000002	165.48033096968985	150.22347288361908
0.8280000000000006	0.3577203021286335	2.9906706340123597	20.700000000000003	112.85317053093296	122.90967423622351
0.8300000000000006	0.3544975967040513	0.7637811856260013	20.75	198.01056928247385	273.73846349177336
0.8320000000000006	0.3577203021286335	0.32227054245822845	20.8	182.471800235238	43.15922515743462
0.8340000000000006	0.3577203021286335	0.32549324788281064	20.85	69.27755942441881	76.07111110110179
0.8360000000000006	0.3544975967040513	0.32549324788281064	20.900000000000002	137.69705049573963	149.0536952801807
0.8380000000000006	0.3706111238269627	0.32227054245822845	20.950000000000003	56.968058181383604	74.94321966221774
0.8400000000000006	3.0003387502861063	0.32227054245822845	21.0	192.30202539387008	176.59994599478475
0.8420000000000006	3.2968276493476765	0.33193865873197526	21.05	111.69311148142707	133.18575713917278
0.8440000000000006	3.2968276493476765	1.9465140764476996	21.1	86.97070137633577	243.78917840166912
0.8460000000000006	1.7499290455481802	3.254932478828107	21.150000000000002	318.2410039641041	142.68692153435322
0.8480000000000006	3.2484870679789424	3.2388189517051957	21.200000000000003	282.5881501296571	222.54431286422263
0.8500000000000006	3.2968276493476765	1.066715495536736	21.25	188.32309347629365	91.94366646041343
0.8520000000000006	3.2968276493476765	1.4147676813916226	21.3	66.95210166132634	45.186824597499246
0.8540000000000006	3.2936049439230946	3.258155184252689	21.35	99.16910451486729	77.24998501022608
0.8560000000000006	3.2968276493476765	3.254932478828107	21.400000000000002	113.66065770216606	185.66821585404173
0.8580000000000007	3.2968276493476765	3.2484870679789424	21.450000000000003	148.13653451955295	304.45400468844286
0.8600000000000007	3.2968276493476765	3.2388189517051957	21.5	193.5839241420595	62.824175435116935
0.8620000000000007	3.28715953307393	1.79182421606775	21.55	78.33196887995871	106.28902830939317
0.8640000000000007	3.2742687113756004	3.2613778896772714	21.6	199.68716351631988	93.79202205180934
0.8660000000000007	1.3922087434195467	3.258155184252689	21.650000000000002	141.52098446421712	152.42043230092077
0.8680000000000007	3.2968276493476765	3.2517097734035247	21.700000000000003	135.291345099416	197.63760643888233
0.8700000000000007	3.2968276493476765	3.2517097734035247	21.75	86.61674896212762	330.5962442597385
0.8720000000000007	3.28715953307393	1.9787411306935223	21.8	46.68595811149601	182.6259301199987
0.8740000000000007	2.5233783474479283	2.6490638590066378	21.85	181.45097954700375	120.95217858473643
0.8760000000000007	1.6468024719615473	3.254932478828107	21.900000000000002	18.76067230949595	282.66030560338146
0.8780000000000007	3.2968276493476765	1.6403570611123826	21.950000000000003	197.79153242271582	50.13885519723891
0.8800000000000007	3.2968276493476765	0.3480521858548867	22.0	168.5110294758176	100.10299942435731
0.8820000000000007	3.28715953307393	0.32549324788281064	22.05	297.56212083545444	187.70719027321007
0.8840000000000007	2.5717189288166624	0.32871595330739295	22.1	148.00458974508564	216.08739289149267
0.8860000000000007	0.4576241702906843	0.32227054245822845	22.150000000000002	232.21497370150348	309.0026207408798
0.8880000000000007	0.3609430075532158	0.32549324788281064	22.200000000000003	98.06459467095914	138.17764670091393
0.8900000000000007	0.3609430075532158	0.31904783703364614	22.25	87.48776343150523	212.45029910897145
0.8920000000000007	0.3577203021286335	0.33838406958113987	22.3	101.26364449286801	175.32088505324984
0.8940000000000007	0.3577203021286335	0.567196154726482	22.35	231.81879402196978	188.1378041114387
0.8960000000000007	0.3641657129777981	3.145360494392309	22.400000000000002	77.90761509445616	234.64289556197156
0.8980000000000007	0.351274891279469	3.254932478828107	22.450000000000003	83.40021069733916	85.70742787311943
0.9000000000000007	0.3609430075532158	3.2388189517051957	22.5	165.82206440735726	27.921910079534968
0.9020000000000007	0.3544975967040513	1.0344884412909132	22.55	75.20666437934055	253.43773806380938
0.9040000000000007	0.3577203021286335	0.33193865873197526	22.6	158.3882823596085	158.31163994470296
0.9060000000000007	0.3609430075532158	0.32871595330739295	22.650000000000002	178.13466842591924	120.13282028960529
0.9080000000000007	0.351274891279469	0.32227054245822845	22.700000000000003	54.93880754756572	177.6980382196143
0.9100000000000007	0.3577203021286335	0.32227054245822845	22.75	155.3348885648713	97.07432770109872
0.9120000000000007	0.3577203021286335	0.31904783703364614	22.8	50.4821926010698	58.93379952662876
0.9140000000000007	0.3577203021286335	0.32549324788281064	22.85	148.8734922999508	155.8212005321629
0.9160000000000007	0.39961547264820324	0.31904783703364614	22.900000000000002	303.98458516555587	61.69300279961375
0.9180000000000007	3.28715953307393	0.32549324788281064	22.950000000000003	168.48618320460582	127.64588800915611
0.9200000000000007	3.28715953307393	0.32227054245822845	23.0	166.15043327552934	267.50126885139537
0.9220000000000007	1.5468986037994965	0.32227054245822845	23.05	207.73402536685626	148.60822940879942
0.9240000000000007	0.3641657129777981	0.33193865873197526	23.1	200.7722909333343	260.9840868658257
0.9260000000000007	2.1753261615930417	0.32549324788281064	23.150000000000002	33.029134968195464	101.7532641096821
0.9280000000000007	3.2936049439230946	0.32549324788281064	23.200000000000003	197.39373192212213	150.80928655887107
0.9300000000000007	2.317125200274662	0.32227054245822845	23.25	167.4535432657843	201.23812958915727
0.9320000000000007	0.4737376974135958	0.32227054245822845	23.3	233.6613284898917	49.081774458048514
0.9340000000000007	0.3577203021286335	0.32549324788281064	23.35	41.44505975107312	111.01654341868512
0.9360000000000007	0.3544975967040513	0.31904783703364614	23.400000000000002	177.21686474969775	151.95910944842961
0.9380000000000007	0.3544975967040513	0.32227054245822845	23.450000000000003	77.45043536011886	40.458164727327805
0.9400000000000007	0.3544975967040513	0.32549324788281064	23.5	92.76158641979357	225.87929692829678
0.9420000000000007	0.3544975967040513	0.32227054245822845	23.55	109.1245353159288	196.62958161653665
0.9440000000000007	0.351274891279469	0.32227054245822845	23.6	101.77335051260833	96.10377572261552
0.9460000000000007	0.3544975967040513	0.33193865873197526	23.650000000000002	93.47722948848845	70.20125565049904
0.9480000000000007	0.351274891279469	1.5791256580453192	23.700000000000003	32.20212364985778	199.54736406037404
0.9500000000000007	0.351274891279469	0.32871595330739295	23.75	125.28458824961282	175.70728707674553
0.9520000000000007	0.3480521858548867	0.32549324788281064	23.8	175.1202821742266	193.52047368351342
0.9540000000000007	0.351274891279469	0.32227054245822845	23.85	115.76259223914982	148.60280824042732
0.9560000000000007	0.351274891279469	0.32227054245822845	23.900000000000002	157.64030046006636	54.66296338913538
0.9580000000000007	0.351274891279469	0.32227054245822845	23.950000000000003	110.31319411982888	130.55761578929724
0.9600000000000007	0.351274891279469	0.32227054245822845	24.0	145.20859878082038	175.97409563289136
0.9620000000000007	0.351274891279469	0.32227054245822845	24.05	125.43035721287616	69.82836470442938
0.9640000000000007	0.351274891279469	0.31904783703364614	24.1	114.19388563541807	221.51153904297013
0.9660000000000007	0.351274891279469	0.32549324788281064	24.150000000000002	154.66108254168242	134.41643434544903
0.9680000000000007	0.351274891279469	0.32227054245822845	24.200000000000003	119.9475807014193	121.50523528799908
0.9700000000000008	0.351274891279469	0.32227054245822845	24.25	21.199417718296946	124.46679317208398
0.9720000000000008	0.351274891279469	0.32227054245822845	24.3	67.71836357982129	143.2736835738697
0.9740000000000008	0.351274891279469	0.31904783703364614	24.35	142.98141170856215	151.66194490978444
0.9760000000000008	0.351274891279469	0.32871595330739295	24.400000000000002	61.03089229773071	55.64782578103903
0.9780000000000008	0.3544975967040513	0.32549324788281064	24.450000000000003	124.2217286959685	73.10446953239043
0.9800000000000008	0.351274891279469	0.32549324788281064	24.5	275.21456145417693	102.43910703957032
0.9820000000000008	0.351274891279469	0.32549324788281064	24.55	317.5160795856432	38.933990798399975
0.9840000000000008	0.3480521858548867	0.32227054245822845	24.6	97.06169321947868	61.46473328817867
0.9860000000000008	0.351274891279469	0.31904783703364614	24.650000000000002	223.0602725098895	86.87226738429925
0.9880000000000008	0.351274891279469	0.32549324788281064	24.700000000000003	204.6062028410441	120.09412903612859
0.9900000000000008	0.3480521858548867	0.32227054245822845	24.75	124.32800618928948	195.11799359310893
0.9920000000000008	0.351274891279469	0.32227054245822845	24.8	81.49539139156293	232.96965678681573
0.9940000000000008	0.351274891279469	0.32227054245822845	24.85	118.12603314075324	204.61240612501413
0.9960000000000008	0.351274891279469	0.32227054245822845	24.900000000000002	168.2344941936494	67.94780887379417
0.9980000000000008	0.351274891279469	0.32227054245822845	24.950000000000003	54.765483330038684	57.438646215104285
1.0000000000000007	0.3480521858548867	0.32227054245822845	25.0	68.99621110165822	59.358902884469046
1.0020000000000007	0.3480521858548867	0.31904783703364614	25.05	122.04542085413259	215.05355563524216
1.0040000000000007	0.3544975967040513	0.32227054245822845	25.1	48.54957266291523	37.853376751422886
1.0060000000000007	0.351274891279469	0.31904783703364614	25.150000000000002	253.38877149199084	121.62512156962481
1.0080000000000007	0.351274891279469	0.32227054245822845	25.200000000000003	172.1837061416539	239.6400399192524
1.0100000000000007	0.3480521858548867	0.31904783703364614	25.25	185.9660648941056	109.51143081633732
1.0120000000000007	0.351274891279469	0.32227054245822845	25.3	135.92392908626587	83.01986466565333
1.0140000000000007	0.3480521858548867	0.32227054245822845	25.35	111.40487771756956	138.0902800697095
1.0160000000000007	0.351274891279469	0.31904783703364614	25.400000000000002	123.9495370355147	61.60469146802354
1.0180000000000007	0.351274891279469	0.31904783703364614	25.450000000000003	86.23794445416894	181.91022129024606
1.0200000000000007	0.3480521858548867	0.32227054245822845	25.5	145.07540815363387	170.3612549444602
1.0220000000000007	0.351274891279469	0.32227054245822845	25.55	106.60657554686152	86.6247308528171
1.0240000000000007	0.351274891279469	0.32227054245822845	25.6	88.51482782172188	224.11037176033818
1.0260000000000007	0.3480521858548867	0.32227054245822845	25.650000000000002	17.38109055664191	123.84670136334441
1.0280000000000007	0.3480521858548867	0.31904783703364614	25.700000000000003	40.49613998272027	94.10669810066878
1.0300000000000007	0.351274891279469	0.33516136415655756	25.75	194.98814735589812	101.61944168908097
1.0320000000000007	0.3480521858548867	2.7425223163195236	25.8	165.7574400308119	97.53613694757055
1.0340000000000007	0.3480521858548867	3.2613778896772714	25.85	144.12230857482993	144.2958645924449
1.0360000000000007	0.3480521858548867	3.254932478828107	25.900000000000002	154.8430985955471	209.6088817602134
1.0380000000000007	0.3480521858548867	1.543675898374914	25.950000000000003	181.31467872874993	54.347440424263084
1.0400000000000007	0.351274891279469	1.940068665598535	26.0	154.16470032445665	66.1392810273529
1.0420000000000007	0.351274891279469	3.258155184252689	26.05	85.17698964169881	131.6197096899487
1.0440000000000007	0.351274891279469	3.254932478828107	26.1	39.6711654727525	115.8620072206112
1.0460000000000007	0.3480521858548867	3.254932478828107	26.150000000000002	133.6172691301929	77.48607185344872
1.0480000000000007	0.3480521858548867	3.258155184252689	26.200000000000003	20.105040254302594	147.99048649311337
1.0500000000000007	0.351274891279469	3.258155184252689	26.25	151.93103985417736	136.77437290907466
1.0520000000000007	0.351274891279469	3.2517097734035247	26.3	57.296676087045896	41.986657981451664
1.0540000000000007	0.351274891279469	3.254932478828107	26.35	68.02330854194553	176.96810102387502
1.0560000000000007	0.3480521858548867	3.254932478828107	26.400000000000002	173.02256191552354	233.88571365785407
1.0580000000000007	0.3480521858548867	3.2388189517051957	26.450000000000003	128.99075158078185	271.60802294322133
1.0600000000000007	0.351274891279469	1.2407415884641795	26.5	54.44938074513895	117.32566801516361
1.0620000000000007	0.3480521858548867	0.32871595330739295	26.55	114.10204933378127	181.35417897373077
1.0640000000000007	0.351274891279469	0.32549324788281064	26.6	128.33553700523012	30.751842750722652
1.0660000000000007	0.3480521858548867	0.32871595330739295	26.650000000000002	28.679715653286873	103.72836310987957
1.0680000000000007	0.3480521858548867	0.32549324788281064	26.700000000000003	91.36817253232829	209.42022572265196
1.0700000000000007	0.3480521858548867	0.31904783703364614	26.75	124.72002677713552	137.6703309862207
1.0720000000000007	0.3480521858548867	0.33516136415655756	26.8	149.07431290906533	134.4982109299941
1.0740000000000007	0.3480521858548867	2.4685923552300295	26.85	110.56578382164666	127.36982341370246
1.0760000000000007	0.3480521858548867	3.2613778896772714	26.900000000000002	250.49273363675363	164.62171605295754
1.0780000000000007	0.3480521858548867	1.7628198672465094	26.950000000000003	50.30468304398409	133.27116883689934
1.0800000000000007	0.3480521858548867	0.3673884184023804	27.0	67.00529056375794	198.34223772654477
1.0820000000000007	0.3480521858548867	0.32227054245822845	27.05	187.44067094892475	25.87278932795792
1.0840000000000007	0.3480521858548867	0.32227054245822845	27.1	32.3323511888194	289.07549191256487
1.0860000000000007	0.34482948043030437	0.32227054245822845	27.150000000000002	85.8631487967669	140.27971981880034
1.0880000000000007	0.3480521858548867	0.32227054245822845	27.200000000000003	101.04231661408375	115.22198195513343
1.0900000000000007	0.3480521858548867	0.31904783703364614	27.25	142.6008481615568	112.38205205054945
1.0920000000000007	0.3480521858548867	0.31904783703364614	27.3	116.85399155887232	110.27365464116122
1.0940000000000007	0.34482948043030437	0.32871595330739295	27.35	68.2550814810816	258.9117874614918
1.0960000000000008	0.3480521858548867	0.32227054245822845	27.400000000000002	133.6000970321968	55.47803275793928
1.0980000000000008	0.3480521858548867	0.32227054245822845	27.450000000000003	143.73501553065074	76.4212294411963
1.1000000000000008	0.3480521858548867	0.31904783703364614	27.5	169.20254607518135	46.26535976442294
1.1020000000000008	0.3480521858548867	0.32549324788281064	27.55	175.05066251442585	89.93057537329413
1.1040000000000008	0.3480521858548867	0.3835019455252918	27.6	140.6738333249368	29.618581288384057
1.1060000000000008	0.3480521858548867	3.042233920805676	27.650000000000002	20.833553321451973	85.92023031257727
1.1080000000000008	0.34482948043030437	3.258155184252689	27.700000000000003	176.17236295889373	280.70462114924055
1.1100000000000008	0.3480521858548867	3.254932478828107	27.75	52.82829892390567	129.10218141303525
1.1120000000000008	0.3480521858548867	2.165658045319295	27.8	158.0434573571112	75.69277441135768
1.1140000000000008	0.3480521858548867	0.5253009842069123	27.85	116.2397378985024	130.8788768816574
1.1160000000000008	0.3480521858548867	0.32549324788281064	27.900000000000002	53.28062768444014	64.70138255038894
1.1180000000000008	0.351274891279469	0.32549324788281064	27.950000000000003	96.10144751648988	130.28870125998563
1.1200000000000008	0.3480521858548867	0.32549324788281064	28.0	61.01202281176736	112.30888067105545
1.1220000000000008	0.3480521858548867	0.31904783703364614	28.05	112.26632109599386	41.70692773790514
1.1240000000000008	0.3480521858548867	0.31904783703364614	28.1	121.04101566671058	44.22256090031163
1.1260000000000008	0.3480521858548867	0.32227054245822845	28.150000000000002	128.3831033843058	73.46217772750263
1.1280000000000008	0.3480521858548867	0.32227054245822845	28.200000000000003	236.65472972350324	72.36377941116262
1.1300000000000008	0.3480521858548867	0.32227054245822845	28.25	37.48351911392222	117.51546923483838
1.1320000000000008	0.3480521858548867	0.31904783703364614	28.3	49.40736575468796	207.81172106367254
1.1340000000000008	0.34482948043030437	0.31904783703364614	28.35	85.2797217648187	193.34386296768247
1.1360000000000008	0.3480521858548867	0.32227054245822845	28.400000000000002	61.05795998418873	126.69465593619735
1.1380000000000008	0.3480521858548867	0.31904783703364614	28.450000000000003	89.79566991026557	89.28169354293878
1.1400000000000008	0.34482948043030437	0.31904783703364614	28.5	58.459093001121644	122.16269747406086
1.1420000000000008	0.3480521858548867	0.32227054245822845	28.55	130.86923867554688	165.20871948508406
1.1440000000000008	0.34482948043030437	0.31904783703364614	28.6	101.56368620309746	31.00217875290411
1.1460000000000008	0.3480521858548867	0.32227054245822845	28.650000000000002	41.156789087503995	244.5183385929239
1.1480000000000008	0.3480521858548867	0.31904783703364614	28.700000000000003	55.117050516613375	61.20032583369967
1.1500000000000008	0.3480521858548867	0.32227054245822845	28.75	100.04898410842091	20.97511469879749
1.1520000000000008	0.34482948043030437	0.32227054245822845	28.8	42.370859296381504	189.33180506089764
1.1540000000000008	0.3480521858548867	0.32227054245822845	28.85	47.78054657808955	102.62450376055521
1.1560000000000008	0.34482948043030437	0.31904783703364614	28.900000000000002	126.12260924391249	100.08182137059543
1.1580000000000008	0.3480521858548867	0.31904783703364614	28.950000000000003	167.94076772893843	175.08112884727743
1.1600000000000008	0.34482948043030437	0.32227054245822845	29.0	116.52913163455605	167.8274566403224
1.1620000000000008	0.34482948043030437	0.32227054245822845	29.05	75.09012660576954	140.95796304697504
1.1640000000000008	0.34482948043030437	0.32227054245822845	29.1	191.79471418444172	54.47304309286363
1.1660000000000008	0.3480521858548867	0.31904783703364614	29.150000000000002	47.03391001533411	60.207277591439436
1.1680000000000008	0.3480521858548867	0.31904783703364614	29.200000000000003	154.2848333806191	203.74012535499222
1.1700000000000008	0.34482948043030437	0.32227054245822845	29.25	19.635257616860265	159.27719612242038
1.1720000000000008	0.34482948043030437	0.32227054245822845	29.3	133.2803685748415	153.4780524781411
1.1740000000000008	0.3480521858548867	0.31904783703364614	29.35	145.39708564357971	127.04992044574502
1.1760000000000008	0.3480521858548867	0.32227054245822845	29.400000000000002	115.35701283293388	149.8614683643353
1.1780000000000008	0.34482948043030437	0.31904783703364614	29.450000000000003	206.13981231402707	77.63667829034223
1.1800000000000008	0.34482948043030437	0.32227054245822845	29.5	126.16804008240862	211.81776918922066
1.1820000000000008	0.34160677500572206	0.32227054245822845	29.55	131.63440083468504	119.02719102016977
1.1840000000000008	0.34482948043030437	0.32227054245822845	29.6	61.231937936490006	83.2414620371156
1.1860000000000008	0.34482948043030437	0.31904783703364614	29.650000000000002	53.649910178246344	86.80651992200875
1.1880000000000008	0.3480521858548867	0.31904783703364614	29.700000000000003	208.40324648890515	28.464810973298913
1.1900000000000008	0.34482948043030437	0.32227054245822845	29.75	62.110888317831275	99.16530469696676
1.1920000000000008	0.34482948043030437	0.32227054245822845	29.8	100.7731222334948	27.988071692390296
1.1940000000000008	0.34482948043030437	0.32227054245822845	29.85	83.87528810582727	135.89043876035643
1.1960000000000008	0.34482948043030437	0.32227054245822845	29.900000000000002	106.5605883056295	152.9321653872966
1.1980000000000008	0.34482948043030437	0.32227054245822845	29.950000000000003	106.39301936436847	87.77078609751638
1.2000000000000008	0.3480521858548867	0.31904783703364614	30.0	181.53768075220196	63.52415306489896
1.2020000000000008	0.34482948043030437	0.32227054245822845	30.05	107.23110730766996	62.88807301517789
1.2040000000000008	0.34482948043030437	0.32227054245822845	30.1	157.76763140183476	109.31798222996302
1.2060000000000008	0.3480521858548867	0.32227054245822845	30.150000000000002	100.03932147081153	188.71076311266432
1.2080000000000009	0.34482948043030437	0.31904783703364614	30.200000000000003	84.64344560652621	83.50218124829053
1.2100000000000009	0.34482948043030437	0.32227054245822845	30.25	120.55772388380318	165.6078589560114
1.2120000000000009	0.34482948043030437	0.32227054245822845	30.3	133.98860803810612	64.92075548307592
1.2140000000000009	0.34482948043030437	0.32227054245822845	30.35	203.42155243570647	54.21661732213029
1.2160000000000009	0.34482948043030437	0.31904783703364614	30.400000000000002	55.97610088132658	131.30988228726764
1.2180000000000009	0.34160677500572206	0.32227054245822845	30.450000000000003	115.19337566215646	18.846087454321577
1.2200000000000009	0.34482948043030437	0.31904783703364614	30.5	66.9956394455437	147.7895944841989
1.2220000000000009	0.34482948043030437	0.32227054245822845	30.55	149.11858743692923	69.599315568701
1.2240000000000009	0.3480521858548867	0.31904783703364614	30.6	79.59995576964872	116.98380443453901
1.2260000000000009	0.34482948043030437	0.32227054245822845	30.650000000000002	88.49465828963243	78.28736849955452
1.2280000000000009	0.34482948043030437	0.31904783703364614	30.700000000000003	18.705401299635636	157.3935286608027
1.2300000000000009	0.34482948043030437	0.31904783703364614	30.75	120.73393059958082	81.85941021099272
1.2320000000000009	0.34482948043030437	0.32227054245822845	30.8	38.83739859200761	78.97019198768808
1.2340000000000009	0.34482948043030437	0.32227054245822845	30.85	189.53589400113393	146.40215799220792
1.2360000000000009	0.34482948043030437	0.32227054245822845	30.900000000000002	47.52081297825238	199.02871912806017
1.2380000000000009	0.34482948043030437	0.32227054245822845	30.950000000000003	106.4499913761227	19.125567407897822
1.2400000000000009	0.34482948043030437	0.31904783703364614	31.0	81.1367688466674	31.144230953681927
1.2420000000000009	0.34482948043030437	0.31904783703364614	31.05	162.76942254846185	89.9158853234082
1.2440000000000009	0.34160677500572206	0.32227054245822845	31.1	28.11916543058836	118.22642913584826
1.2460000000000009	0.34482948043030437	0.32227054245822845	31.150000000000002	131.01637806524926	117.53154099486083
1.2480000000000009	0.34482948043030437	0.32227054245822845	31.200000000000003	98.05382737506217	22.160184404253478
1.2500000000000009	0.34482948043030437	0.31904783703364614	31.25	7.362529207067431	38.3674755107633
1.252000000000001	0.34482948043030437	0.32227054245822845	31.3	100.76930543620864	108.9186066971215
1.254000000000001	0.34482948043030437	0.32227054245822845	31.35	72.06206719027291	17.286498508264916
1.256000000000001	0.34160677500572206	0.32227054245822845	31.400000000000002	120.82608076945401	65.02858176290246
1.258000000000001	0.34160677500572206	0.31904783703364614	31.450000000000003	185.89857859960125	217.28361915243963
1.260000000000001	0.34160677500572206	0.32227054245822845	31.5	137.69209239668763	111.10424864884133
1.262000000000001	0.34482948043030437	0.32227054245822845	31.55	76.9435961460934	78.88434391502277
1.264000000000001	0.34482948043030437	0.32227054245822845	31.6	102.5915693535491	77.17844954828617
1.266000000000001	0.34482948043030437	0.31904783703364614	31.650000000000002	124.45171848828123	154.35152765134376
1.268000000000001	0.34482948043030437	0.31904783703364614	31.700000000000003	130.57124119594735	119.57960347671285
1.270000000000001	0.34160677500572206	0.32227054245822845	31.75	165.4585950533754	8.080945902487962
1.272000000000001	0.34482948043030437	0.31904783703364614	31.8	124.11817532037222	37.30464945164599
1.274000000000001	0.3480521858548867	0.32227054245822845	31.85	40.7812640274192	24.45470312338178
1.276000000000001	0.34482948043030437	0.32227054245822845	31.900000000000002	160.67924821341418	49.83292575234851
1.278000000000001	0.34482948043030437	0.31904783703364614	31.950000000000003	106.05875353632504	73.78508684319408
1.280000000000001	0.34482948043030437	0.31904783703364614	32.0	114.90561236176397	57.38845705854962
1.282000000000001	0.34482948043030437	0.31904783703364614	32.050000000000004	164.8380477414128	183.6308644990946
1.284000000000001	0.34482948043030437	0.32227054245822845	32.1	112.13982982686572	235.07796861387405
1.286000000000001	0.34482948043030437	0.32227054245822845	32.15	61.565013949285756	82.59529560707665
1.288000000000001	0.34160677500572206	0.31904783703364614	32.2	160.77120077514994	212.81790747903494
1.290000000000001	0.34160677500572206	0.32227054245822845	32.25	102.03010681769784	87.43140392454777
1.292000000000001	0.34482948043030437	0.31904783703364614	32.300000000000004	102.1029394940972	37.59330627834824
1.294000000000001	0.34160677500572206	0.32227054245822845	32.35	192.92593722354835	74.8837147249399
1.296000000000001	0.34160677500572206	0.32227054245822845	32.4	156.71606598631158	35.62684908971505
1.298000000000001	0.34160677500572206	0.32227054245822845	32.45	133.80427549205385	63.35174384188072
1.300000000000001	0.34482948043030437	0.32227054245822845	32.5	151.7723333412813	124.91995666271497
1.302000000000001	0.34482948043030437	0.32227054245822845	32.550000000000004	102.74826790814218	59.44941711232221
1.304000000000001	0.34482948043030437	0.32227054245822845	32.6	58.78910480645662	127.51436367406815
1.306000000000001	0.34482948043030437	0.32227054245822845	32.65	78.34587065401703	100.16532442010543
1.308000000000001	0.34482948043030437	0.32549324788281064	32.7	75.80253466773944	176.03900058789418
1.310000000000001	0.34160677500572206	0.32227054245822845	32.75	137.13341614216787	101.58528130157634
1.312000000000001	0.34482948043030437	0.32227054245822845	32.800000000000004	157.4557844973285	72.8611705857008
1.314000000000001	0.34160677500572206	0.31904783703364614	32.85	106.90471123991159	134.17525260403926
1.316000000000001	0.34482948043030437	0.32227054245822845	32.9	115.71943856159697	134.57027884847088
1.318000000000001	0.34160677500572206	0.31904783703364614	32.95	61.10832165065385	103.09039843100294
1.320000000000001	0.34482948043030437	0.32227054245822845	33.0	33.97735087788666	95.53786957417506
1.322000000000001	0.34482948043030437	0.31904783703364614	33.050000000000004	69.3980351276372	73.19005059476986
1.324000000000001	0.34482948043030437	0.31904783703364614	33.1	94.7490011627204	81.54672805416604
1.326000000000001	0.34160677500572206	0.31904783703364614	33.15	86.02810863495014	117.83628044835393
1.328000000000001	0.3480521858548867	0.32227054245822845	33.2	113.19262011178111	168.92844845809898
1.330000000000001	0.34482948043030437	0.32227054245822845	33.25	160.33714181584267	97.3335197790693
1.332000000000001	0.34482948043030437	0.32227054245822845	33.300000000000004	41.574234319163914	164.32086593266555
1.334000000000001	0.34482948043030437	0.32227054245822845	33.35	76.72659755903919	69.62221199917117
1.336000000000001	0.34160677500572206	0.31904783703364614	33.4	128.8497654223961	63.61146280450975
1.338000000000001	0.3544975967040513	0.32227054245822845	33.45	134.6232785925834	93.04309688686493
1.340000000000001	3.196923781185626	0.31904783703364614	33.5	59.79224264221622	15.59069955168895
1.342000000000001	3.258155184252689	0.31904783703364614	33.550000000000004	99.48507569798967	54.030946861403145
1.344000000000001	3.258155184252689	0.31904783703364614	33.6	133.8556824341331	79.97431837884288
1.346000000000001	3.258155184252689	0.32549324788281064	33.65	53.89313604989907	48.91248601307513
1.348000000000001	3.258155184252689	0.32227054245822845	33.7	31.164500186957852	117.96405647765161
1.350000000000001	3.258155184252689	0.32227054245822845	33.75	121.35827211924274	88.57114118250803
1.352000000000001	3.258155184252689	0.31904783703364614	33.800000000000004	87.18899895792073	108.45664308516307
1.354000000000001	3.2517097734035247	0.32227054245822845	33.85	69.94557406285378	29.631077624648977
1.356000000000001	3.2517097734035247	0.31904783703364614	33.9	44.83806796935789	95.89932958992739
1.358000000000001	3.2517097734035247	0.32227054245822845	33.95	156.15677235147328	105.50680750979592
1.360000000000001	3.258155184252689	0.32227054245822845	34.0	147.14152935462553	116.64174657185366
1.362000000000001	3.2517097734035247	0.31904783703364614	34.050000000000004	66.46226952709243	51.322762497582545
1.364000000000001	3.24526436255436	0.31904783703364614	34.1	51.93460285734518	97.72775067668056
1.366000000000001	2.8359807736324103	0.31904783703364614	34.15	119.87957208700554	100.7165825342825
1.368000000000001	3.258155184252689	0.31904783703364614	34.2	93.31380260621766	105.99523662932783
1.370000000000001	3.258155184252689	0.31904783703364614	34.25	113.29712280837789	82.04925504670837
1.372000000000001	3.258155184252689	0.32227054245822845	34.300000000000004	27.042000068325414	94.5350379107455
1.374000000000001	3.2484870679789424	0.31904783703364614	34.35	134.00769047703736	142.67850764757964
1.376000000000001	1.214959945067521	0.32227054245822845	34.4	73.08633210703213	240.19357485584587
1.378000000000001	0.351274891279469	0.31904783703364614	34.45	121.82592367565123	124.43981680177131
1.380000000000001	0.3480521858548867	0.32227054245822845	34.5	188.4989533632023	52.19919746341183
1.382000000000001	0.34482948043030437	0.31904783703364614	34.550000000000004	150.67472391945617	88.4503799337936
1.384000000000001	0.34482948043030437	0.31904783703364614	34.6	73.39515331316862	117.88646461658031
1.386000000000001	0.351274891279469	0.31904783703364614	34.65	126.95683727488193	61.85014190803991
1.388000000000001	0.3480521858548867	0.31904783703364614	34.7	87.33055260271284	110.99646197054807
1.390000000000001	0.34482948043030437	0.32227054245822845	34.75	181.723322429677	178.70088805751186
1.392000000000001	0.34482948043030437	0.32227054245822845	34.800000000000004	98.65892846687363	75.86145177834591
1.394000000000001	0.34482948043030437	0.31904783703364614	34.85	54.92534260515867	114.07390948684953
1.396000000000001	0.34482948043030437	0.31904783703364614	34.9	41.424439672548004	38.53310508668628
1.398000000000001	0.34160677500572206	0.32227054245822845	34.95	123.0501575094893	102.75214861626706
1.400000000000001	0.34482948043030437	0.32227054245822845	35.0	26.024797678791668	79.09507959452378
1.402000000000001	0.34482948043030437	0.31904783703364614	35.050000000000004	93.47799803420793	127.35650396064094
1.404000000000001	0.34160677500572206	0.32227054245822845	35.1	43.49970406094336	176.15769556171801
1.406000000000001	0.34482948043030437	0.32549324788281064	35.15	64.72291673740156	50.64235604317048
1.408000000000001	0.34482948043030437	0.32227054245822845	35.2	52.77735116698667	127.35633662977845
1.410000000000001	0.34482948043030437	0.32227054245822845	35.25	88.47169040379218	154.5448969033591
1.412000000000001	0.34482948043030437	0.32227054245822845	35.300000000000004	75.74046653339771	129.51798980443817
1.414000000000001	0.3544975967040513	0.31904783703364614	35.35	72.47059203202042	49.508423141388434
1.416000000000001	0.34482948043030437	0.31904783703364614	35.4	31.027850630985505	139.66823063366792
1.418000000000001	0.3480521858548867	0.32227054245822845	35.45	68.8372358680931	67.99740911154396
1.420000000000001	0.34482948043030437	0.31904783703364614	35.5	77.1285017954459	47.83296174165465
1.422000000000001	0.34482948043030437	0.31904783703364614	35.550000000000004	170.57514728308678	83.99237966511492
1.424000000000001	0.351274891279469	0.31904783703364614	35.6	30.958688569731216	29.353087524817127
1.426000000000001	2.7844174868390934	0.32227054245822845	35.65	147.11366347012253	27.27753181544702
1.428000000000001	3.258155184252689	0.32227054245822845	35.7	80.5800964831756	81.85229411184467
1.430000000000001	2.7521904325932707	0.32227054245822845	35.75	118.80733680089514	114.25325534405546
1.432000000000001	0.6090913252460517	0.31904783703364614	35.800000000000004	82.86436303263643	80.28433441392754
1.434000000000001	1.7660425726710915	0.32227054245822845	35.85	48.57383508616536	130.9541356306696
1.436000000000001	3.254932478828107	0.31904783703364614	35.9	92.52968441972335	21.439015857416656
1.438000000000001	0.760558480201419	0.32227054245822845	35.95	80.36938312533178	118.6697729988283
1.440000000000001	0.3480521858548867	0.32227054245822845	36.0	56.21824830617657	48.706145088197424
1.442000000000001	0.39639276722362093	0.32227054245822845	36.050000000000004	140.62095273713908	43.44099930865269
1.444000000000001	3.258155184252689	0.31904783703364614	36.1	161.97664516759286	71.52601833675061
1.446000000000001	3.254932478828107	0.31904783703364614	36.15	64.05366548239707	84.70894823825077
1.448000000000001	3.2484870679789424	0.32227054245822845	36.2	53.173654073705045	31.476623993638846
1.450000000000001	2.3525749599450676	0.32227054245822845	36.25	34.536511624653535	101.97233690177833
1.452000000000001	2.8746532387273973	0.32227054245822845	36.300000000000004	130.4781349314639	82.54347360237071
1.454000000000001	3.258155184252689	0.31904783703364614	36.35	108.31278531828988	97.7504853789328
1.456000000000001	3.254932478828107	0.31904783703364614	36.4	82.49066581307513	114.39558906036531
1.458000000000001	3.2517097734035247	0.32227054245822845	36.45	101.58751447037963	19.371865884107294
1.460000000000001	1.1086106660563058	0.31904783703364614	36.5	7.321026055276857	35.36436254503316
1.462000000000001	0.3544975967040513	0.31904783703364614	36.550000000000004	18.964765389797563	26.668502338168445
1.464000000000001	0.351274891279469	0.32227054245822845	36.6	85.86874222282528	139.2055421421672
1.466000000000001	0.3480521858548867	0.31904783703364614	36.65	147.6052470802882	94.88309334837726
1.468000000000001	0.34482948043030437	0.32227054245822845	36.7	94.19810413988326	72.41271174337513
1.470000000000001	0.34160677500572206	0.32227054245822845	36.75	72.66476853136395	67.45694815329928
1.472000000000001	0.34482948043030437	0.31904783703364614	36.800000000000004	147.1783534590313	49.952264396641866
1.474000000000001	0.34482948043030437	0.31904783703364614	36.85	88.14302715986403	129.5366620906229
1.476000000000001	0.34482948043030437	0.32227054245822845	36.9	75.33660625949133	72.43214515189077
1.478000000000001	0.34482948043030437	0.32227054245822845	36.95	42.655471345846706	54.70261370858868
1.480000000000001	0.351274891279469	0.31904783703364614	37.0	119.96654587160764	48.934507484628504
1.482000000000001	0.34482948043030437	0.31904783703364614	37.050000000000004	162.90580721107338	53.689401875371416
1.484000000000001	0.3480521858548867	0.32227054245822845	37.1	147.04235850427543	170.20960243012442
1.486000000000001	0.34482948043030437	0.32227054245822845	37.15	92.83286766892697	48.61309399258149
1.488000000000001	0.34160677500572206	0.32227054245822845	37.2	9.202873681852832	5.403383914640855
1.490000000000001	0.3480521858548867	0.32227054245822845	37.25	37.123097429278566	179.30756993103824
1.492000000000001	0.3480521858548867	0.32227054245822845	37.300000000000004	126.6173511795878	83.47234487562805
1.494000000000001	0.34482948043030437	0.32227054245822845	37.35	15.801440516413134	32.036897966854575
1.496000000000001	0.34482948043030437	0.32227054245822845	37.4	134.76162977066392	47.19412440802302
1.498000000000001	0.3544975967040513	0.31904783703364614	37.45	8.70726834828312	149.654113869574
1.500000000000001	1.1118333714808881	0.31904783703364614	37.5	76.41852504529108	106.92953844312201
1.5020000000000011	1.1956237125200275	0.31904783703364614	37.550000000000004	21.424761686619217	47.51159659360101
1.5040000000000011	0.351274891279469	0.31904783703364614	37.6	37.546156514875136	64.72138023489889
1.5060000000000011	0.34482948043030437	0.32227054245822845	37.65	58.18915903751153	113.53186504210471
1.5080000000000011	0.3480521858548867	0.32227054245822845	37.7	75.72750433725939	116.3534416380973
1.5100000000000011	0.34482948043030437	0.32227054245822845	37.75	80.28538334354093	129.58038427623595
1.5120000000000011	0.34482948043030437	0.32227054245822845	37.800000000000004	95.43721233696657	72.08920730004279
1.5140000000000011	0.3480521858548867	0.32227054245822845	37.85	87.5856219115868	88.36934946764106
1.5160000000000011	0.34482948043030437	0.31904783703364614	37.9	151.09891242785503	50.344163849367185
1.5180000000000011	0.3480521858548867	0.32227054245822845	37.95	61.55672977576612	62.72121078163568
1.5200000000000011	0.3480521858548867	0.31904783703364614	38.0	135.95564889137012	77.60489029203892
1.5220000000000011	0.34482948043030437	0.32227054245822845	38.050000000000004	164.43015669683695	51.565721694967735
1.5240000000000011	0.34482948043030437	0.31904783703364614	38.1	108.90065939566804	141.2678676560096
1.5260000000000011	0.34482948043030437	0.32227054245822845	38.15	12.064698285750824	125.89417808615303
1.5280000000000011	0.3480521858548867	0.31904783703364614	38.2	90.19502167513437	140.05005190365864
1.5300000000000011	0.34482948043030437	0.31904783703364614	38.25	92.41233449064269	134.9732948043019
1.5320000000000011	0.34482948043030437	0.32227054245822845	38.300000000000004	60.09597224811467	116.43110753816396
1.5340000000000011	0.34160677500572206	0.31904783703364614	38.35	104.45209739990096	76.30926408369199
1.5360000000000011	0.34160677500572206	0.32227054245822845	38.400000000000006	29.177639594586378	116.98826590734615
1.5380000000000011	0.3480521858548867	0.31904783703364614	38.45	24.653640739026862	123.06175024337182
1.5400000000000011	0.351274891279469	0.32227054245822845	38.5	88.74834262533437	83.021737484963
1.5420000000000011	0.34482948043030437	0.32227054245822845	38.550000000000004	36.90519456198338	137.0538063299579
1.5440000000000011	0.34482948043030437	0.31904783703364614	38.6	109.94645030112724	109.06266190935894
1.5460000000000012	0.34482948043030437	0.31904783703364614	38.650000000000006	21.190091725020604	103.78522346011475
1.5480000000000012	0.3480521858548867	0.32227054245822845	38.7	23.79788142731205	84.70804044492583
1.5500000000000012	2.1592126344701303	0.32227054245822845	38.75	150.51345531496992	62.584678777297604
1.5520000000000012	0.4447333485923552	0.31904783703364614	38.800000000000004	75.39561963569555	85.09168714131336
1.5540000000000012	0.34482948043030437	0.32227054245822845	38.85	40.1091371752294	142.34392142912031
1.5560000000000012	0.34160677500572206	0.31904783703364614	38.900000000000006	82.8529693363508	118.22200182338062
1.5580000000000012	0.34482948043030437	0.31904783703364614	38.95	107.16439878667374	104.46261733228542
1.5600000000000012	0.34160677500572206	0.32227054245822845	39.0	129.51484401023274	159.21970053538251
1.5620000000000012	0.3480521858548867	0.32227054245822845	39.050000000000004	163.08180662304727	96.33202857006968
1.5640000000000012	0.34482948043030437	0.33193865873197526	39.1	54.620524803119984	64.42826554423468
1.5660000000000012	0.33838406958113987	3.2646005951018537	39.150000000000006	99.44312812527694	118.148090607619
1.5680000000000012	0.3544975967040513	3.2613778896772714	39.2	39.6599116655845	31.48867811252716
1.5700000000000012	0.34482948043030437	3.254932478828107	39.25	31.34253294385966	51.286113745486986
1.5720000000000012	0.34482948043030437	3.258155184252689	39.300000000000004	120.58154356370324	100.5099808328263
1.5740000000000012	0.34160677500572206	3.2613778896772714	39.35	83.98641965515685	177.7137660911029
1.5760000000000012	0.34160677500572206	3.258155184252689	39.400000000000006	52.816953316243044	72.9303687329051
1.5780000000000012	0.34160677500572206	3.254932478828107	39.45	61.25401467093498	57.9470657793771
1.5800000000000012	0.33838406958113987	3.254932478828107	39.5	65.97372707041676	94.82191084950712
1.5820000000000012	0.34160677500572206	3.254932478828107	39.550000000000004	29.2095789434166	128.9642794415699
1.5840000000000012	0.34160677500572206	3.258155184252689	39.6	70.9222893374729	71.31461041133848
1.5860000000000012	0.33838406958113987	3.258155184252689	39.650000000000006	61.75462883569581	9.20426283000891
1.5880000000000012	0.3480521858548867	3.258155184252689	39.7	31.2173717649172	154.24312858624293
1.5900000000000012	0.34482948043030437	3.254932478828107	39.75	64.89699701899099	49.91469176228347
1.5920000000000012	0.3480521858548867	3.258155184252689	39.800000000000004	38.17473419729136	61.35068178285105
1.5940000000000012	0.34160677500572206	3.2613778896772714	39.85	45.6666484795886	89.2037480030334
1.5960000000000012	0.34160677500572206	3.258155184252689	39.900000000000006	106.17359979766482	164.04373188316876
1.5980000000000012	0.34160677500572206	3.2517097734035247	39.95	50.45688997710327	201.7745624631149
1.6000000000000012	0.34160677500572206	2.829535362783245	40.0	57.861660005337825	76.51466607759981
1.6020000000000012	0.34160677500572206	0.567196154726482	40.050000000000004	1.9458712145349968	70.3182520003663
1.6040000000000012	0.34160677500572206	0.32549324788281064	40.1	91.98911086847545	20.88881656180421
1.6060000000000012	0.34160677500572206	0.32549324788281064	40.150000000000006	61.21438171416104	97.84458612960108
1.6080000000000012	0.33838406958113987	0.32549324788281064	40.2	82.67732841204017	144.41921240432825
1.6100000000000012	0.34482948043030437	0.32227054245822845	40.25	89.24929082368826	99.04969290860372
1.6120000000000012	0.34482948043030437	0.33193865873197526	40.300000000000004	10.434271377547685	80.11741876567623
1.6140000000000012	0.34160677500572206	0.31904783703364614	40.35	59.107116153151416	47.07999260904723
1.6160000000000012	0.34160677500572206	0.32871595330739295	40.400000000000006	25.285487103579715	0.5988329588641025
1.6180000000000012	0.34160677500572206	0.32227054245822845	40.45	198.14105261711583	98.79793132054137
1.6200000000000012	0.34482948043030437	0.32871595330739295	40.5	142.1639410849675	62.08416456699136
1.6220000000000012	0.33838406958113987	0.6767681391622797	40.550000000000004	116.07242495305887	47.60585906210202
1.6240000000000012	0.34482948043030437	3.2613778896772714	40.6	67.81785254106015	99.7808566540667
1.6260000000000012	0.34482948043030437	3.258155184252689	40.650000000000006	61.196121729746686	93.24530262678635
1.6280000000000012	0.34160677500572206	3.258155184252689	40.7	49.82271067222214	54.864474078924324
1.6300000000000012	0.34482948043030437	3.254932478828107	40.75	147.92813772660784	94.48644497625381
1.6320000000000012	0.34160677500572206	3.258155184252689	40.800000000000004	94.16647587179368	58.4694129927593
1.6340000000000012	0.34160677500572206	3.254932478828107	40.85	92.82872508528797	174.63779840220332
1.6360000000000012	0.34160677500572206	3.2517097734035247	40.900000000000006	65.55681991313693	60.56090718243241
1.6380000000000012	0.34160677500572206	3.258155184252689	40.95	101.34589928530794	81.54506206401126
1.6400000000000012	0.34160677500572206	3.258155184252689	41.0	99.02918390940121	81.28291202122222
1.6420000000000012	0.33838406958113987	3.254932478828107	41.050000000000004	166.4798479815457	68.413226483135
1.6440000000000012	0.34482948043030437	3.258155184252689	41.1	34.43026347202906	193.56118134316347
1.6460000000000012	0.33838406958113987	3.254932478828107	41.150000000000006	18.232363850037654	57.75938649125448
1.6480000000000012	0.33838406958113987	3.258155184252689	41.2	62.31444117219782	66.74657082137676
1.6500000000000012	0.34160677500572206	3.258155184252689	41.25	52.131382745323776	70.81617386157808
1.6520000000000012	0.34482948043030437	3.254932478828107	41.300000000000004	76.38891538052872	57.68901048338751
1.6540000000000012	0.34482948043030437	3.258155184252689	41.35	35.57322292760649	36.53997638366444
1.6560000000000012	0.33838406958113987	3.254932478828107	41.400000000000006	65.5225414626566	108.90842983556844
1.6580000000000013	0.34160677500572206	3.258155184252689	41.45	44.23111385606602	75.88236630036711
1.6600000000000013	0.34160677500572206	3.258155184252689	41.5	128.58720330058856	120.03444133038613
1.6620000000000013	0.34160677500572206	3.2613778896772714	41.550000000000004	98.49742232016659	16.528553765563792
1.6640000000000013	0.34160677500572206	3.254932478828107	41.6	132.2712976300602	15.989897829104189
1.6660000000000013	0.34160677500572206	3.2613778896772714	41.650000000000006	87.19720338161477	47.845930283902305
1.6680000000000013	0.34482948043030437	3.258155184252689	41.7	53.59672329401124	140.78079750742938
1.6700000000000013	0.34160677500572206	3.258155184252689	41.75	52.11947446616348	35.427454040127465
1.6720000000000013	0.33838406958113987	3.258155184252689	41.800000000000004	59.41655457243368	99.76507003938947
1.6740000000000013	0.33516136415655756	3.254932478828107	41.85	20.614308036708135	150.39277816094418
1.6760000000000013	0.34160677500572206	3.258155184252689	41.900000000000006	48.22154470000483	18.25109059382612
1.6780000000000013	0.34160677500572206	3.2613778896772714	41.95	43.69202764551584	61.27014331745101
1.6800000000000013	0.34160677500572206	3.2613778896772714	42.0	22.67765608993823	116.18629374994167
1.6820000000000013	0.34160677500572206	3.2517097734035247	42.050000000000004	90.6828130454117	65.69592343814996
1.6840000000000013	0.34482948043030437	3.2517097734035247	42.1	51.76190305897978	69.51468536453127
1.6860000000000013	0.34160677500572206	3.2613778896772714	42.150000000000006	124.17343055198505	94.52441652161227
1.6880000000000013	0.33838406958113987	3.258155184252689	42.2	131.45443281464847	12.66345761423168
1.6900000000000013	0.34482948043030437	3.258155184252689	42.25	92.92355321211612	36.041564620514784
1.6920000000000013	0.34160677500572206	3.258155184252689	42.300000000000004	102.03727769407135	105.62786098600597
1.6940000000000013	0.34160677500572206	3.258155184252689	42.35	69.48335901943139	37.30923673843173
1.6960000000000013	0.34160677500572206	3.2613778896772714	42.400000000000006	71.72230325216867	58.27355548333614
1.6980000000000013	0.33193865873197526	3.267823300526436	42.45	104.6427538229546	26.780387607445988
1.7000000000000013	0.33838406958113987	3.2517097734035247	42.5	51.13406859286561	95.29823900991626
1.7020000000000013	0.34482948043030437	3.2517097734035247	42.550000000000004	52.79560471569944	60.82377588345928
1.7040000000000013	0.34482948043030437	1.0924971389333944	42.6	68.1676673692878	130.0361151749642
1.7060000000000013	0.34160677500572206	0.33516136415655756	42.650000000000006	64.52329592171819	77.55157723931282
1.7080000000000013	0.34482948043030437	0.31904783703364614	42.7	42.462991141785544	172.84507019843184
1.7100000000000013	0.33838406958113987	0.33516136415655756	42.75	56.99170854597536	64.8912524945418
1.7120000000000013	0.34482948043030437	0.32549324788281064	42.800000000000004	99.81025596289591	32.3866761265838
1.7140000000000013	0.34160677500572206	0.31904783703364614	42.85	45.60756732424128	159.1231068613367
1.7160000000000013	0.34160677500572206	0.33516136415655756	42.900000000000006	3.311484900013019	81.3211440967351
1.7180000000000013	0.34160677500572206	0.31904783703364614	42.95	138.58165239702794	29.667793445859846
1.7200000000000013	0.34160677500572206	0.33193865873197526	43.0	133.50783037030078	166.1546125090342
1.7220000000000013	0.34482948043030437	0.32549324788281064	43.050000000000004	38.538119197732364	132.92317422635546
1.7240000000000013	0.33838406958113987	0.33193865873197526	43.1	36.925342079727415	44.626318955963875
1.7260000000000013	0.34160677500572206	0.32871595330739295	43.150000000000006	22.817705645174907	48.86671689053663
1.7280000000000013	0.34160677500572206	0.32227054245822845	43.2	40.75560179849309	81.08063066487551
1.7300000000000013	0.34160677500572206	0.32871595330739295	43.25	46.84332825260931	83.18775851554943
1.7320000000000013	0.34160677500572206	0.32549324788281064	43.300000000000004	62.9827838988768	46.944997582067764
1.7340000000000013	0.33838406958113987	0.33516136415655756	43.35	63.675329527183145	21.398801756908437
1.7360000000000013	0.33516136415655756	0.32549324788281064	43.400000000000006	90.38338941239526	145.35424626093962
1.7380000000000013	0.33838406958113987	0.32549324788281064	43.45	96.97830909897277	102.04497123790202
1.7400000000000013	0.34160677500572206	0.32549324788281064	43.5	8.744406866976034	46.841667528752744
1.7420000000000013	0.34482948043030437	0.32227054245822845	43.550000000000004	98.32830617579263	77.2200641069564
1.7440000000000013	0.34482948043030437	0.32871595330739295	43.6	26.014522013340876	53.91278798810126
1.7460000000000013	0.34160677500572206	0.31582513160906384	43.650000000000006	63.645720824054706	134.05639789983462
1.7480000000000013	0.3480521858548867	0.32549324788281064	43.7	62.65246077244982	178.54554124069244
1.7500000000000013	0.34482948043030437	0.32549324788281064	43.75	55.01111030187286	110.83267299462953
1.7520000000000013	0.34160677500572206	0.31904783703364614	43.800000000000004	33.35408813530579	181.49699078221536
1.7540000000000013	0.34160677500572206	0.33193865873197526	43.85	45.3476867099298	183.0940948960047
1.7560000000000013	0.34482948043030437	0.32227054245822845	43.900000000000006	116.40967375869629	18.487005677097592
1.7580000000000013	0.33838406958113987	0.32549324788281064	43.95	129.35403867467534	114.35272886978657
1.7600000000000013	0.34160677500572206	0.32227054245822845	44.0	12.197327781253284	49.897078869591255
1.7620000000000013	0.34160677500572206	0.33193865873197526	44.050000000000004	37.27280515108942	100.60709338102201
1.7640000000000013	0.34160677500572206	0.33193865873197526	44.1	133.8393190049349	135.98409961275266
1.7660000000000013	0.33838406958113987	1.962627603570611	44.150000000000006	51.63054743534757	72.39602994613433
1.7680000000000013	0.34160677500572206	0.33516136415655756	44.2	38.24363874953004	16.318566720093912
1.7700000000000014	0.33838406958113987	0.32871595330739295	44.25	172.30205234638984	69.35762206402086
1.7720000000000014	0.34160677500572206	0.33516136415655756	44.300000000000004	24.573817307957288	43.752795026258575
1.7740000000000014	0.34160677500572206	0.32871595330739295	44.35	18.40057316818223	30.176940156006044
1.7760000000000014	0.34482948043030437	0.3867246509498741	44.400000000000006	142.90164034775185	76.54095662037236
1.7780000000000014	0.34482948043030437	0.32871595330739295	44.45	22.086497369048907	199.17976624506593
1.7800000000000014	0.33838406958113987	0.32549324788281064	44.5	87.25794568352306	41.647113582823444
1.7820000000000014	0.34482948043030437	0.32227054245822845	44.550000000000004	43.539689362356825	10.460526269525191
1.7840000000000014	0.33838406958113987	0.31904783703364614	44.6	36.6489107943417	83.81464699504701
1.7860000000000014	0.33838406958113987	0.32227054245822845	44.650000000000006	44.680482692079686	43.22868895981824
1.7880000000000014	0.34482948043030437	0.32227054245822845	44.7	36.81840720614112	32.077460903893446
1.7900000000000014	3.1292469672693977	0.32227054245822845	44.75	129.89539091130257	48.98584458780294
1.7920000000000014	1.0409338521400777	0.32549324788281064	44.800000000000004	91.63424956423032	110.44740167456384
1.7940000000000014	0.3480521858548867	0.32227054245822845	44.85	85.12326591424794	99.95097977847165
1.7960000000000014	0.34482948043030437	0.32227054245822845	44.900000000000006	37.92936705680272	56.30568255455409
1.7980000000000014	1.5340077821011673	0.32227054245822845	44.95	173.6972922754591	28.306299043185295
1.8000000000000014	3.258155184252689	0.31904783703364614	45.0	85.8018238299666	22.618368988675
1.8020000000000014	3.258155184252689	0.33193865873197526	45.050000000000004	94.19417707566765	145.92231357190965
1.8040000000000014	3.2420416571297777	0.32871595330739295	45.1	56.74374075869882	69.52226193835038
1.8060000000000014	1.4663309681849392	0.32549324788281064	45.150000000000006	27.046880538584674	71.30421520714235
1.8080000000000014	2.861762417029068	0.32227054245822845	45.2	42.332041695411505	125.88161374419128
1.8100000000000014	3.258155184252689	0.32227054245822845	45.25	51.99809130843519	50.76577960366566
1.8120000000000014	3.2517097734035247	0.32549324788281064	45.300000000000004	9.00677637758739	37.218248889301215
1.8140000000000014	3.2517097734035247	0.32227054245822845	45.35	135.528416632039	20.70475467529072
1.8160000000000014	2.2172213321126115	0.32549324788281064	45.400000000000006	68.91605242249469	76.00348492391818
1.8180000000000014	3.258155184252689	0.32227054245822845	45.45	95.39732435319493	28.694857893237085
1.8200000000000014	3.258155184252689	0.32227054245822845	45.5	12.889512826985092	52.016820786757776
1.8220000000000014	3.2517097734035247	0.32227054245822845	45.550000000000004	49.685893555230685	24.994523094377428
1.8240000000000014	3.2484870679789424	0.32227054245822845	45.6	27.257813841671965	78.31864027963196
1.8260000000000014	3.267823300526436	0.31904783703364614	45.650000000000006	128.81981132784085	78.38198190254471
1.8280000000000014	3.258155184252689	0.31904783703364614	45.7	77.41335769797158	27.762521582704842
1.8300000000000014	3.2517097734035247	0.33193865873197526	45.75	46.645469112311005	67.07936004654377
1.8320000000000014	3.2613778896772714	0.32549324788281064	45.800000000000004	61.67058672676744	66.97746209897966
1.8340000000000014	3.2484870679789424	0.32227054245822845	45.85	92.90997954563406	71.21071627083795
1.8360000000000014	3.258155184252689	0.32227054245822845	45.900000000000006	33.853414655291346	77.50024714375746
1.8380000000000014	3.2613778896772714	0.32227054245822845	45.95	90.5264863215968	68.60784270912595
1.8400000000000014	3.2517097734035247	0.32871595330739295	46.0	163.9283081318904	155.91307812067927
1.8420000000000014	3.2484870679789424	0.31904783703364614	46.050000000000004	61.89775941977211	43.503195020011425
1.8440000000000014	3.2484870679789424	0.32549324788281064	46.1	37.60933826291033	97.74815917754755
1.8460000000000014	2.7360769054703593	0.32227054245822845	46.150000000000006	45.03589593258341	106.42865800743937
1.8480000000000014	0.5414145113298238	0.33193865873197526	46.2	55.87520879498171	59.49605705122901
1.8500000000000014	0.34160677500572206	0.33516136415655756	46.25	16.367502179521097	39.87606252050892
1.8520000000000014	0.3480521858548867	2.777972075989929	46.300000000000004	77.38461301844225	175.08584548924443
1.8540000000000014	0.34482948043030437	3.258155184252689	46.35	91.49568133487513	137.0856651253374
1.8560000000000014	0.34482948043030437	2.1688807507438774	46.400000000000006	35.724065994115	57.14859915018897
1.8580000000000014	0.3544975967040513	0.32871595330739295	46.45	54.02660572709355	14.31340120026437
1.8600000000000014	0.34160677500572206	0.32549324788281064	46.5	60.587134389693546	67.4907760264917
1.8620000000000014	0.3480521858548867	0.32549324788281064	46.550000000000004	123.703025918755	41.80840477259425
1.8640000000000014	0.34482948043030437	0.32227054245822845	46.6	92.75631506786826	58.553081366279166
1.8660000000000014	0.33838406958113987	0.32227054245822845	46.650000000000006	119.12805274716499	100.20250902986895
1.8680000000000014	0.3480521858548867	0.32227054245822845	46.7	60.52676110072774	120.18966681298166
1.8700000000000014	0.34160677500572206	0.31904783703364614	46.75	74.65558263749311	29.916760079223668
1.8720000000000014	0.3480521858548867	0.32549324788281064	46.800000000000004	130.8683218953784	60.36616939784271
1.8740000000000014	0.34160677500572206	0.32549324788281064	46.85	19.927352550051065	102.64248468121022
1.8760000000000014	0.34482948043030437	0.32227054245822845	46.900000000000006	26.05679843540862	102.9220521299976
1.8780000000000014	0.34160677500572206	0.32549324788281064	46.95	80.52253327598409	124.61552401707986
1.8800000000000014	0.34160677500572206	0.32227054245822845	47.0	40.503931379697924	70.51336031743122
1.8820000000000014	0.34482948043030437	0.32227054245822845	47.050000000000004	73.47770528457075	78.37616052788195
1.8840000000000015	0.34482948043030437	0.32549324788281064	47.1	68.75096081188812	54.563763109637215
1.8860000000000015	0.34160677500572206	0.31904783703364614	47.150000000000006	69.26696191661058	129.24540598161158
1.8880000000000015	0.34482948043030437	0.32871595330739295	47.2	81.96198825204971	151.0508589005264
1.8900000000000015	0.34160677500572206	0.32227054245822845	47.25	5.065255583770126	11.86723559438466
1.8920000000000015	0.34482948043030437	0.32549324788281064	47.300000000000004	99.95977956160277	89.40585104185756
1.8940000000000015	0.33838406958113987	0.32227054245822845	47.35	74.27297195491896	48.8721548447717
1.8960000000000015	0.34160677500572206	0.32227054245822845	47.400000000000006	52.12634353186475	60.42024493338807
1.8980000000000015	0.34482948043030437	0.32549324788281064	47.45	138.09773350369727	67.14770470692096
1.9000000000000015	0.34482948043030437	0.32227054245822845	47.5	9.293748640020834	127.75389284514276
1.9020000000000015	0.33516136415655756	0.32549324788281064	47.550000000000004	68.62488993635168	107.42511102200278
1.9040000000000015	0.33838406958113987	0.31904783703364614	47.6	36.645385411672784	59.56189678051135
1.9060000000000015	0.33516136415655756	0.32549324788281064	47.650000000000006	13.39385778387003	73.84772702730878
1.9080000000000015	0.34482948043030437	0.31904783703364614	47.7	33.75207745143448	34.23741391260721
1.9100000000000015	0.34160677500572206	0.32227054245822845	47.75	35.58942643436168	29.52514545504305
1.9120000000000015	0.34482948043030437	0.32227054245822845	47.800000000000004	9.94193000044649	69.84555481269447
1.9140000000000015	0.34160677500572206	0.31904783703364614	47.85	101.55401480022302	37.56913384994108
1.9160000000000015	0.33838406958113987	0.32871595330739295	47.900000000000006	65.286204180907	56.70974430894881
1.9180000000000015	0.351274891279469	0.32549324788281064	47.95	46.34061916891138	29.786545830916843
1.9200000000000015	0.33838406958113987	0.32227054245822845	48.0	31.558904216920414	77.3982271312087
1.9220000000000015	0.34482948043030437	0.32227054245822845	48.050000000000004	116.26928718135805	70.63113869511226
1.9240000000000015	0.3480521858548867	0.32227054245822845	48.1	26.23059134174308	68.0595325878469
1.9260000000000015	0.34160677500572206	0.32227054245822845	48.150000000000006	45.33192633780613	123.83979358103
1.9280000000000015	0.34482948043030437	0.32227054245822845	48.2	67.51695576119748	117.51962584560371
1.9300000000000015	0.33838406958113987	0.32227054245822845	48.25	125.06256522589133	78.23733639521146
1.9320000000000015	0.34160677500572206	0.31904783703364614	48.300000000000004	49.139305301678625	77.96949405805996
1.9340000000000015	0.34160677500572206	0.31904783703364614	48.35	41.566706935250195	40.32149499490483
1.9360000000000015	0.34482948043030437	0.32227054245822845	48.400000000000006	34.87774392054932	60.88500723051487
1.9380000000000015	0.34482948043030437	0.31904783703364614	48.45	55.31275783586942	81.02470464956073
1.9400000000000015	0.33516136415655756	0.32227054245822845	48.5	37.80814210286172	32.94948303217575
1.9420000000000015	0.33838406958113987	0.32227054245822845	48.550000000000004	32.853999016740175	97.94749410732776
1.9440000000000015	0.34160677500572206	0.31904783703364614	48.6	55.873151729890765	15.572273532124076
1.9460000000000015	0.33838406958113987	0.32227054245822845	48.650000000000006	30.0968170288002	62.19273860523789
1.9480000000000015	0.34482948043030437	0.32227054245822845	48.7	26.959005390201625	65.00847231417247
1.9500000000000015	0.34160677500572206	0.31904783703364614	48.75	119.2201772142988	99.70424990225227
1.9520000000000015	0.34482948043030437	0.32227054245822845	48.800000000000004	25.850742546205602	42.917423774136715
1.9540000000000015	0.33838406958113987	0.32227054245822845	48.85	33.7290651633766	27.45220490192485
1.9560000000000015	0.34160677500572206	0.32227054245822845	48.900000000000006	60.66195898171573	39.44727540443219
1.9580000000000015	0.34482948043030437	0.31904783703364614	48.95	109.53228373088706	52.50421385861308
1.9600000000000015	0.33516136415655756	0.32227054245822845	49.0	114.31852245359013	56.43203588325574
1.9620000000000015	0.34482948043030437	0.32227054245822845	49.050000000000004	61.64145380844987	28.42257494357838
1.9640000000000015	0.33838406958113987	0.31904783703364614	49.1	35.52612176269496	39.215866489657614
1.9660000000000015	0.34160677500572206	0.32227054245822845	49.150000000000006	77.19606625206201	50.22141951061536
1.9680000000000015	0.34160677500572206	0.32227054245822845	49.2	39.22498404794895	64.21904398501859
1.9700000000000015	0.34160677500572206	0.31904783703364614	49.25	105.46560182996377	35.313143727908354
1.9720000000000015	0.33838406958113987	0.31904783703364614	49.300000000000004	20.734418260542267	37.110968218733696
1.9740000000000015	0.33838406958113987	0.32227054245822845	49.35	94.19193964251008	77.32313723726253
1.9760000000000015	0.33838406958113987	0.32227054245822845	49.400000000000006	77.54004102745824	13.093583246698634
1.9780000000000015	0.33838406958113987	0.32227054245822845	49.45	63.47581108560618	179.4818546428786
1.9800000000000015	0.34160677500572206	0.32227054245822845	49.5	47.4827007800413	105.94045778058671
1.9820000000000015	0.34482948043030437	0.31904783703364614	49.550000000000004	53.254405687804905	17.339892507546736
1.9840000000000015	0.33838406958113987	0.32227054245822845	49.6	40.40323078628983	83.07311648354107
1.9860000000000015	0.33838406958113987	0.32227054245822845	49.650000000000006	73.45980579360494	61.54996549924039
1.9880000000000015	0.3544975967040513	0.32227054245822845	49.7	35.61763898787467	128.14086193662047
1.9900000000000015	2.0560860608834974	0.31904783703364614	49.75	42.38161662145926	125.14437656850276
1.9920000000000015	3.2613778896772714	0.31904783703364614	49.800000000000004	93.72510648466978	66.50016215477847
1.9940000000000015	3.2613778896772714	0.32227054245822845	49.85	49.72743518731301	134.7731703513203
1.9960000000000016	3.258155184252689	0.32227054245822845	49.900000000000006	68.70052699531279	21.41348752081841
1.9980000000000016	1.6725841153582053	0.31904783703364614	49.95	142.6784960841192	35.64533615763978
2.0000000000000013	0.4060608834973678	0.31904783703364614	50.0	120.71996106371104	34.17474569836405
2.002000000000001	0.3480521858548867	0.31904783703364614	50.050000000000004	30.768128307080573	78.28480725582124
2.004000000000001	0.34482948043030437	0.32227054245822845	50.1	110.5582530776254	68.29301059157262
2.0060000000000007	0.34160677500572206	0.31904783703364614	50.150000000000006	46.40604252166989	31.783879115783538
2.0080000000000005	0.351274891279469	0.32227054245822845	50.2	48.30154741013651	57.99908632212241
2.0100000000000002	0.34160677500572206	0.31904783703364614	50.25	86.48508690363319	29.998718819384802
2.012	0.3480521858548867	0.32227054245822845	50.300000000000004	10.61637644848764	45.51040509332852
2.014	0.34160677500572206	0.31904783703364614	50.35	42.814075567030336	46.30433526929417
2.0159999999999996	0.33838406958113987	0.32227054245822845	50.400000000000006	70.56195687689666	25.24206633366536
2.0179999999999993	0.34160677500572206	0.31904783703364614	50.45	55.49966623158981	8.990401649876647
2.019999999999999	0.34160677500572206	0.31904783703364614	50.5	39.65057014419354	64.47564269541402
2.021999999999999	0.34160677500572206	0.32227054245822845	50.550000000000004	71.29744832397938	68.36524560290077
2.0239999999999987	0.33838406958113987	0.31904783703364614	50.6	79.88472685423335	11.59600081325314
2.0259999999999985	0.34160677500572206	0.31904783703364614	50.650000000000006	63.657122736446595	90.94603836266344
2.0279999999999982	0.34482948043030437	0.31904783703364614	50.7	51.292735180580934	100.89053028101634
2.029999999999998	0.34160677500572206	0.32227054245822845	50.75	41.26974137658112	91.95571242894988
2.031999999999998	0.34160677500572206	0.31904783703364614	50.800000000000004	53.061210722477824	52.26091481382335
2.0339999999999976	0.33838406958113987	0.31904783703364614	50.85	42.8310480572414	88.50886148592016
2.0359999999999974	0.34482948043030437	0.31904783703364614	50.900000000000006	34.03521404207439	63.60244022810336
2.037999999999997	0.351274891279469	0.31904783703364614	50.95	63.597872986780715	73.7782799048494
2.039999999999997	2.346129549095903	0.32227054245822845	51.0	45.92399536661859	87.2604702436763
2.0419999999999967	3.258155184252689	0.32227054245822845	51.050000000000004	103.17599403446893	98.63382727889687
2.0439999999999965	3.2484870679789424	0.32227054245822845	51.1	6.673096493630703	82.21593034769079
2.0459999999999963	2.9874479285877773	0.32227054245822845	51.150000000000006	92.830088020734	45.109937240243646
2.047999999999996	0.8088990615701533	0.32227054245822845	51.2	39.59966361224831	7.805924174889601
2.049999999999996	2.9455527580682075	0.31904783703364614	51.25	22.977285097755637	80.17787022312213
2.0519999999999956	3.2517097734035247	0.31904783703364614	51.300000000000004	100.70075194335998	48.50897251475801
2.0539999999999954	3.258155184252689	0.31904783703364614	51.35	43.381174404243424	66.62100869943625
2.055999999999995	3.2484870679789424	0.32871595330739295	51.400000000000006	32.30285176714307	69.04525771010151
2.057999999999995	3.258155184252689	2.0593087663080794	51.45	53.91582906206441	65.761447643092
2.0599999999999947	3.258155184252689	3.258155184252689	51.5	32.0308445730239	89.71796059764661
2.0619999999999945	3.258155184252689	3.2517097734035247	51.550000000000004	77.55679844465162	42.84418840842918
2.0639999999999943	3.2517097734035247	1.4598855573357747	51.6	28.456507372921838	71.71100784865226
2.065999999999994	3.258155184252689	2.7650812542915997	51.650000000000006	76.27452196702546	87.47328238449268
2.067999999999994	1.3116411078049897	3.2613778896772714	51.7	83.26304556594593	23.5962587051707
2.0699999999999936	0.3480521858548867	3.258155184252689	51.75	69.19194718205756	90.30695138275631
2.0719999999999934	0.34482948043030437	3.2517097734035247	51.800000000000004	54.71024965029108	24.184528286896445
2.073999999999993	0.34160677500572206	3.254932478828107	51.85	25.775085560516292	85.76277365880995
2.075999999999993	0.34160677500572206	3.258155184252689	51.900000000000006	80.13050772818414	36.81203117050033
2.0779999999999927	0.34160677500572206	3.258155184252689	51.95	58.035287846702	51.1168681710928
2.0799999999999925	0.34160677500572206	3.254932478828107	52.0	76.7267789338611	73.06825640175178
2.0819999999999923	0.34160677500572206	3.2517097734035247	52.050000000000004	77.45340881628702	46.71286123147425
2.083999999999992	0.34160677500572206	3.254932478828107	52.1	40.04770924175594	114.15763238811385
2.085999999999992	0.3480521858548867	3.254932478828107	52.150000000000006	40.59928575828958	131.01594225445774
2.0879999999999916	0.3480521858548867	3.254932478828107	52.2	65.87103464456743	42.38636985924066
2.0899999999999914	0.5253009842069123	3.254932478828107	52.25	49.23111420041874	60.161042060733365
2.091999999999991	0.3480521858548867	3.254932478828107	52.300000000000004	119.5866198655111	53.05688048020705
2.093999999999991	0.34160677500572206	2.3010116731517507	52.35	41.3309415951367	21.044805325044397
2.0959999999999908	0.33838406958113987	3.258155184252689	52.400000000000006	77.91220977012577	42.89377309603179
2.0979999999999905	0.34160677500572206	3.254932478828107	52.45	38.694236871162936	97.54177900288211
2.0999999999999903	0.34160677500572206	3.254932478828107	52.5	36.46170057567937	86.25919198393949
2.10199999999999	0.34160677500572206	3.254932478828107	52.550000000000004	21.581388923637636	108.3357820775265
2.10399999999999	0.33838406958113987	2.5169329365987636	52.6	48.880665747014866	85.25178920318973
2.1059999999999897	0.34160677500572206	3.258155184252689	52.650000000000006	15.566515561719344	69.16069424058021
2.1079999999999894	0.34160677500572206	3.2517097734035247	52.7	36.648569996397256	36.63247856037123
2.109999999999989	0.34160677500572206	3.2388189517051957	52.75	111.09348976265028	69.76715468017936
2.111999999999989	0.34160677500572206	0.8540169375143053	52.800000000000004	46.83982621439513	12.319057244661932
2.1139999999999888	0.34160677500572206	0.33193865873197526	52.85	26.99741718685366	26.929830599245147
2.1159999999999886	0.34160677500572206	2.114094758525978	52.900000000000006	55.409990287091574	56.89092128268529
2.1179999999999883	0.34160677500572206	0.32871595330739295	52.95	21.83860758698044	61.50154670730756
2.119999999999988	0.34160677500572206	0.32549324788281064	53.0	44.11181497271879	83.51689687013618
2.121999999999988	0.34160677500572206	0.32227054245822845	53.050000000000004	56.674030575394845	64.88052011173797
2.1239999999999877	0.33838406958113987	0.3770565346761272	53.1	68.25880615050784	19.85511197944659
2.1259999999999875	0.34160677500572206	3.1131334401464863	53.150000000000006	118.05253005129988	96.40881703143867
2.1279999999999872	0.34160677500572206	3.2517097734035247	53.2	33.38490741972957	28.289321561525586
2.129999999999987	0.34160677500572206	3.2388189517051957	53.25	70.69881608215182	17.562628293320717
2.131999999999987	0.34160677500572206	0.5736415655756466	53.300000000000004	31.179195081450704	28.925963009197083
2.1339999999999866	0.33838406958113987	3.2613778896772714	53.35	23.09198466259694	75.7281791005747
2.1359999999999864	0.33838406958113987	3.2613778896772714	53.400000000000006	71.37085435805197	82.93695683559699
2.137999999999986	0.34160677500572206	3.254932478828107	53.45	60.298819860623674	56.51958364333624
2.139999999999986	0.34160677500572206	3.254932478828107	53.5	50.72101640292103	18.52367996997068
2.1419999999999857	0.33838406958113987	3.254932478828107	53.550000000000004	29.34432997831419	31.868728910030725
2.1439999999999855	0.34160677500572206	3.258155184252689	53.6	66.99516601822413	32.856977640617814
2.1459999999999853	0.34160677500572206	3.254932478828107	53.650000000000006	33.73992863061942	14.283613724941176
2.147999999999985	0.34160677500572206	3.2517097734035247	53.7	111.62743979373147	61.1191710058418
2.149999999999985	0.34160677500572206	3.2420416571297777	53.75	82.94887749361054	3.6955222435913724
2.1519999999999846	0.34160677500572206	3.258155184252689	53.800000000000004	69.23717359805975	57.50857357186335
2.1539999999999844	0.33838406958113987	3.258155184252689	53.85	126.94954815390092	56.044208144099024
2.155999999999984	0.33838406958113987	3.258155184252689	53.900000000000006	66.2454252989423	67.86346326369275
2.157999999999984	0.33838406958113987	3.2517097734035247	53.95	33.03510820866306	93.1422056736734
2.1599999999999837	0.34160677500572206	3.2388189517051957	54.0	60.716820403398444	46.82893861001692
2.1619999999999835	0.33838406958113987	2.1721034561684593	54.050000000000004	26.52169583408637	64.18592745725589
2.1639999999999833	0.34160677500572206	3.2613778896772714	54.1	23.472303283137258	67.6911855941154
2.165999999999983	0.34160677500572206	3.254932478828107	54.150000000000006	16.22493416310025	112.32085780561646
2.167999999999983	0.33838406958113987	3.2388189517051957	54.2	61.83022075368476	90.16351885807849
2.1699999999999826	0.34160677500572206	0.5575280384527351	54.25	22.452476690925874	72.09098766799208
2.1719999999999824	0.33838406958113987	0.32227054245822845	54.300000000000004	72.63153250426546	33.28011608101217
2.173999999999982	0.34160677500572206	0.32871595330739295	54.35	86.63159653177432	53.72119606101368
2.175999999999982	0.33838406958113987	0.32549324788281064	54.400000000000006	34.77843626512297	36.254473108304765
2.1779999999999817	0.34160677500572206	0.32227054245822845	54.45	63.848753148318664	69.41430422144023
2.1799999999999815	0.34160677500572206	0.32871595330739295	54.5	67.38321892408308	53.523743681723445
2.1819999999999813	0.33838406958113987	0.32549324788281064	54.550000000000004	83.30543912969155	90.67452680311763
2.183999999999981	0.34160677500572206	0.32227054245822845	54.6	12.907279726178748	104.51659018397467
2.185999999999981	0.34160677500572206	0.32549324788281064	54.650000000000006	53.47646015549351	50.08474159922852
2.1879999999999806	0.33838406958113987	0.32227054245822845	54.7	56.74819561624059	75.78147575689
2.1899999999999804	0.33838406958113987	0.32549324788281064	54.75	37.286891713873885	95.78080676326032
2.19199999999998	0.33838406958113987	0.32227054245822845	54.800000000000004	46.45371109780494	44.98564155833446
2.19399999999998	0.33838406958113987	0.32549324788281064	54.85	93.92290888358734	59.051763162666994
2.1959999999999797	0.33838406958113987	0.32227054245822845	54.900000000000006	85.84641799088976	31.431069791691357
2.1979999999999795	0.34160677500572206	0.32227054245822845	54.95	113.42606232127709	11.125372185054816
2.1999999999999793	0.33838406958113987	0.32549324788281064	55.0	55.37129174835693	30.038852851457513
2.201999999999979	0.33838406958113987	0.32227054245822845	55.050000000000004	110.29699052336261	49.29650571623477
2.203999999999979	0.34160677500572206	0.31904783703364614	55.1	96.73146629723125	42.59731038806731
2.2059999999999786	0.34160677500572206	0.32227054245822845	55.150000000000006	24.14466833652205	63.59418314093701
2.2079999999999784	0.33838406958113987	0.31904783703364614	55.2	63.391178631260836	92.41377660152087
2.209999999999978	0.34160677500572206	0.32871595330739295	55.25	80.32866214607562	85.815401505797
2.211999999999978	0.33838406958113987	0.32549324788281064	55.300000000000004	45.66772303724179	91.3402781339308
2.2139999999999778	0.33838406958113987	0.32227054245822845	55.35	37.05873379386459	120.77203800813396
2.2159999999999775	0.33838406958113987	0.32227054245822845	55.400000000000006	37.74480649907044	21.63625243090981
2.2179999999999773	0.34160677500572206	0.31904783703364614	55.45	82.58136562292681	75.76036268616348
2.219999999999977	0.34160677500572206	0.32227054245822845	55.5	32.481718312790804	49.60617915201706
2.221999999999977	0.34160677500572206	0.32227054245822845	55.550000000000004	78.71645141947891	48.90224658943719
2.2239999999999767	0.33838406958113987	0.32227054245822845	55.6	18.143979581331582	54.418324034824366
2.2259999999999764	0.34160677500572206	0.31904783703364614	55.650000000000006	116.44340788318696	135.31510280168825
2.227999999999976	0.33838406958113987	0.32549324788281064	55.7	55.38637287260335	27.354518621925575
2.229999999999976	0.34160677500572206	0.31904783703364614	55.75	62.07986452318557	72.35291716868723
2.231999999999976	0.33838406958113987	0.32227054245822845	55.800000000000004	64.16445681651491	44.89668992125032
2.2339999999999756	0.33838406958113987	0.32227054245822845	55.85	57.80508437828781	77.77128228633127
2.2359999999999753	0.33838406958113987	0.32227054245822845	55.900000000000006	21.772091855542676	28.787542227321044
2.237999999999975	0.33838406958113987	0.32549324788281064	55.95	122.89118403687365	95.94807228181304
2.239999999999975	0.34160677500572206	0.32549324788281064	56.0	37.9656356774208	78.63953294664586
2.2419999999999747	0.34160677500572206	0.32549324788281064	56.050000000000004	110.0335732527439	90.99723070701889
2.2439999999999745	0.34160677500572206	0.32227054245822845	56.1	7.976252119287955	58.89034630054823
2.2459999999999742	0.33838406958113987	0.32549324788281064	56.150000000000006	40.76852479670498	40.99560116818432
2.247999999999974	0.33838406958113987	0.3673884184023804	56.2	32.9540984506713	40.70733030678415
2.249999999999974	0.33838406958113987	0.4479560540169375	56.25	28.40930802881009	51.707210353294194
2.2519999999999736	0.34160677500572206	0.32549324788281064	56.300000000000004	33.08210181735926	16.51653118778041
2.2539999999999734	0.34160677500572206	0.32227054245822845	56.35	42.31031186756296	133.6515524347508
2.255999999999973	0.33838406958113987	0.32549324788281064	56.400000000000006	35.43801002793701	44.93990116780453
2.257999999999973	0.34160677500572206	0.32549324788281064	56.45	89.99049169252214	23.931592302290785
2.2599999999999727	0.33838406958113987	0.31904783703364614	56.5	27.12292237926443	81.75783317374511
2.2619999999999725	0.33838406958113987	0.32227054245822845	56.550000000000004	34.5539688756587	82.91436156461579
2.2639999999999723	0.33838406958113987	0.32227054245822845	56.6	56.61071316471485	28.922421397248595
2.265999999999972	0.33838406958113987	0.32227054245822845	56.650000000000006	30.392971167100942	136.390365621168
2.267999999999972	0.33838406958113987	0.32227054245822845	56.7	37.447646687861315	75.56335764565058
2.2699999999999716	0.34160677500572206	0.32227054245822845	56.75	22.880296644343527	96.03472039579017
2.2719999999999714	0.33838406958113987	0.32227054245822845	56.800000000000004	18.61439616651882	74.01830147811819
2.273999999999971	0.34160677500572206	0.31904783703364614	56.85	124.82190077698367	37.78371019269038
2.275999999999971	0.33838406958113987	0.32227054245822845	56.900000000000006	55.42958793204658	1.4931059024816433
2.2779999999999707	0.34160677500572206	0.31904783703364614	56.95	89.86396020914736	13.890826693000758
2.2799999999999705	0.33838406958113987	0.32227054245822845	57.0	33.299971077088586	88.57609202840229
2.2819999999999703	0.33838406958113987	0.31904783703364614	57.050000000000004	85.40522399162116	61.59164445570976
2.28399999999997	0.34160677500572206	0.32227054245822845	57.1	28.648550269160094	89.57259191199935
2.28599999999997	0.33838406958113987	0.31904783703364614	57.150000000000006	51.17814235262687	26.353926946857115
