

 begin log for calibration v12021-02-171.7209246967269396
2.178548867017624
1.3116411078049897
1.5855710688944837
2.1946623941405354
1.827273975738155
1.1924010070954452
1.7595971618219273
2.1302082856488895
1.3180865186541542
1.1279468986037995
1.9110643167772945
1.247186999313344
1.076383611810483
1.859501029983978
1.189178301670863
1.1956237125200275
2.0045227740901805
0.9635889219501029
1.440549324788281
2.1173174639505605
2.0496406500343327
1.543675898374914
1.9175097276264592
2.210775921263447
2.1495445181963837
2.143099107347219
1.3406454566262302
1.3374227512016479
1.3857633325703822
1.2310734721904324
2.0109681849393453
1.769265278095674
1.5823483634699016
2.143099107347219
2.0270817120622566
1.189178301670863
1.530785076676585
1.3922087434195467
1.9207324330510414
2.1721034561684593
1.214959945067521
1.2600778210116732
1.7853788052185853
1.1215014877546348
1.8304966811627372
2.094758525978485
2.1269855802243076
2.039972533760586
2.1108720531013963
1.9432913710231172
1.3793179217212175
1.179510185397116
1.0796063172350652
1.5372304875257494
1.9207324330510414
2.0496406500343327
1.930400549324788
1.4598855573357747
1.5726802471961545
1.9690730144197757
2.165658045319295
2.062531471732662
1.756374456397345
1.3632043945983061
1.179510185397116
2.1495445181963837
2.097981231403067
2.0045227740901805
0.9893705653467612
1.089274433508812
1.292304875257496
1.836942092011902
2.0141908903639276
2.0560860608834974
1.9465140764476996
1.6629159990844586
1.3438681620508124
1.1086106660563058
1.0699382009613183
1.1118333714808881
1.2342961776150148
1.4792217898832682
1.7338155184252688
1.7757106889448386
1.9207324330510414
1.4566628519111924
1.3438681620508124
1.179510185397116
1.1150560769054703
1.169842069123369
2.094758525978485
2.114094758525978
2.039972533760586
1.1601739528496224
1.1279468986037995
1.1440604257267109
1.3051956969558252
2.114094758525978
2.1302082856488895
2.1592126344701303
1.9239551384756237
1.7305928130006865
1.56623483634699
1.3696498054474708
1.2794140535591667
1.1827328908216983
1.2085145342183565
1.179510185397116
1.2085145342183565
1.2794140535591667
1.3986541542687112
1.1924010070954452
1.1730647745479514
1.1601739528496224
1.179510185397116
1.15695124742504
1.2246280613412681
1.1666193636987867
1.1827328908216983
1.189178301670863
2.152767223620966
1.9594048981460288
1.8981734950789653
1.8014923323414966
1.6886976424811169
1.475999084458686
1.4373266193636987
2.094758525978485
1.3245319295033189
1.6371343556878002
1.359981689173724
1.2052918287937744
1.3019729915312426
1.211737239642939
2.114094758525978
1.3406454566262302
1.6403570611123826
1.2697459372854198
1.2214053559166858
1.169842069123369
1.2085145342183565
1.2794140535591667
1.2890821698329138
1.2761913481345846
0.8475715266651408
1.1924010070954452
1.3696498054474708
1.543675898374914
1.6049073014419775
1.5597894254978255
1.211737239642939
0.9732570382238498
0.9249164568551155
1.1472831311512932
1.3696498054474708
1.5404531929503318
2.072199588006409
2.133430991073472
2.233334859235523
2.1366536964980547
1.8304966811627372
1.5017807278553443
1.395431448844129
1.5082261387045088
1.9658503089951933
2.359020370794232
2.452478828107118
1.8788372625314715
1.327754634927901
1.4212130922407873
1.4502174410620279
2.2301121538109405
2.346129549095903
1.9884092469672694
1.3760952162966353
1.4244357976653697
1.6661387045090408
2.2494483863584347
2.346129549095903
2.0367498283360037
1.3342000457770655
1.4179903868162052
2.0496406500343327
2.317125200274662
2.0109681849393453
1.4469947356374455
1.327754634927901
1.90461890592813
2.323570611123827
2.039972533760586
1.3374227512016479
1.3664271000228883
1.9207324330510414
2.391247425040055
1.962627603570611
1.3889860379949646
1.372872510872053
2.204330510414282
2.246225680933852
1.3051956969558252
1.4598855573357747
2.107649347676814
2.2720073243305103
1.7048111696040282
2.310679789425498
1.4373266193636987
2.233334859235523
1.6919203479056992
2.2526710917830166
1.6886976424811169
1.3148638132295718
1.962627603570611
2.204330510414282
1.372872510872053
0.9925932707713435
1.4534401464866102
1.2342961776150148
0.9732570382238498
1.7209246967269396
1.0473792629892424
1.3632043945983061
1.981963836118105
1.247186999313344
1.4534401464866102
2.2236667429617762
1.5275623712520026
1.4824444953078508
2.255893797207599
1.601684596017395
2.1269855802243076
1.9368459601739527
1.359981689173724
1.7402609292744335
2.1688807507438774
1.440549324788281
2.368688487067979
1.6532478828107118
1.5501213092240786
2.359020370794232
1.5243396658274204
1.7048111696040282
2.339684138246738
1.3793179217212175
2.0754222934309907
1.8433875028610665
1.4631082627603569
2.381579308766308
1.5630121309224079
1.9787411306935223
1.981963836118105
0.9732570382238498
2.0141908903639276
1.6822522316319524
1.3148638132295718
2.0045227740901805
1.1215014877546348
1.994854657816434
1.2858594644083312
1.849832913710231
1.981963836118105
1.1730647745479514
1.6854749370565345
1.292304875257496
1.930400549324788
1.0860517280842297
2.043195239185168
1.2310734721904324
1.9561821927214464
1.3148638132295718
2.2301121538109405
1.3148638132295718
2.323570611123827
1.395431448844129
2.220444037537194
1.6468024719615473
2.0367498283360037
1.9368459601739527
1.7531517509727625
2.210775921263447
1.530785076676585
2.3429068436713205
1.4566628519111924
2.423474479285878
1.3889860379949646
1.9658503089951933
2.0754222934309907
1.746706340123598
1.872391851682307
1.8047150377660792
1.8788372625314715
2.0077454795147633
1.2633005264362553
1.9368459601739527
1.359981689173724
1.90461890592813
1.3116411078049897
1.9368459601739527
1.3406454566262302
1.872391851682307
1.408322270542458
1.9271778439002059
2.31390249485008
2.1366536964980547
1.282636758983749
2.2623392080567633
1.2633005264362553
2.204330510414282
2.152767223620966
1.430881208514534
1.824051270313573
1.8176058594644082
1.2955275806820783
1.9884092469672694
1.1311696040283816
1.5468986037994965
1.949736781872282
1.0634927901121538
2.039972533760586
1.1408377203021287
1.8756145571068894
1.5275623712520026
1.4727763790341037
1.994854657816434
1.102165255207141
2.1914396887159535
1.4147676813916226
1.6919203479056992
1.4985580224307622
1.1408377203021287
2.3557976653696495
1.2987502861066604
2.291343556878004
1.7241474021515222
1.5952391851682308
2.197885099565118
1.2310734721904324
2.0560860608834974
2.0367498283360037
1.3406454566262302
2.278452735179675
2.1495445181963837
1.3857633325703822
2.1269855802243076
2.1914396887159535
1.3180865186541542
1.824051270313573
2.220444037537194
1.3438681620508124
1.5694575417715724
1.962627603570611
2.3429068436713205
2.178548867017624
1.3470908674753947
2.297788967727169
2.410583657587549
1.5855710688944837
1.714479285877775
2.4041382467383836
2.4653696498054476
2.4782604715037766
2.475037766079194
1.6725841153582053
1.4824444953078508
2.0689768825818264
2.3557976653696495
1.7499290455481802
1.4212130922407873
1.79182421606775
2.381579308766308
1.7305928130006865
1.3986541542687112
1.9368459601739527
2.4041382467383836
1.601684596017395
2.371911192492561
1.543675898374914
2.3493522545204852
1.2536324101625085
2.226889448386358
1.359981689173724
2.4331425955596244
1.5340077821011673
2.184994277866789
1.994854657816434
1.7757106889448386
1.9465140764476996
2.0593087663080794
1.4663309681849392
2.1108720531013963
1.327754634927901
2.165658045319295
1.2858594644083312
2.1044266422522315
1.2568551155870908
2.0270817120622566
1.5726802471961545
1.8530556191348135
1.4792217898832682
1.981963836118105
1.4115449759670404
2.001300068665598
1.359981689173724
2.0206363012130923
1.4115449759670404
1.8433875028610665
1.5920164797436482
2.0141908903639276
1.4502174410620279
2.052863355458915
1.521116960402838
1.9336232547493706
1.6113527122911422
1.2761913481345846
2.152767223620966
2.1044266422522315
1.1633966582742046
2.1688807507438774
1.1859555962462804
2.204330510414282
1.2697459372854198
2.1688807507438774
1.327754634927901
2.146321812771801
1.3245319295033189
1.849832913710231
1.530785076676585
1.6500251773861294
1.8433875028610665
1.3922087434195467
2.1624353398947123
1.2568551155870908
2.2301121538109405
1.282636758983749
2.0786449988555735
1.3696498054474708
1.553344014648661
0.9764797436484322
0.42539711604486147
0.7251087205310139
1.4824444953078508
0.6606546120393683
1.6468024719615473
1.2665232318608375
0.9732570382238498
1.8401647974364843
1.0924971389333944
1.7757106889448386
1.5694575417715724
1.0151522087434195
0.9990386816205081
1.8014923323414966
1.9658503089951933
1.2439642938887616
2.204330510414282
1.5855710688944837
1.601684596017395
2.3848020141908903
1.5017807278553443
2.107649347676814
2.4073609521629664
1.5114488441290912
2.1173174639505605
2.339684138246738
1.5082261387045088
2.417029068436713
2.030304417486839
1.5146715495536736
2.4492561226825362
1.8079377431906614
2.1882169832913707
2.5233783474479283
2.3557976653696495
2.226889448386358
1.4598855573357747
1.4888899061570153
2.326793316548409
2.3751338979171432
1.6886976424811169
1.543675898374914
2.320347905699245
2.1205401693751433
1.3213092240787365
2.1495445181963837
2.378356603341726
1.4985580224307622
1.4566628519111924
2.152767223620966
2.107649347676814
1.4341039139391165
1.4018768596932936
1.0957198443579768
1.0183749141680019
0.5091874570840009
0.6316502632181277
1.517894254978256
1.4018768596932936
1.6854749370565345
1.6629159990844586
1.169842069123369
1.4373266193636987
2.1882169832913707
2.1173174639505605
1.4179903868162052
1.5920164797436482
2.3074570840009154
2.3848020141908903
1.6500251773861294
1.5823483634699016
1.5597894254978255
1.7048111696040282
2.410583657587549
2.5040421149004346
2.3944701304646374
1.5920164797436482
1.7305928130006865
2.4009155413138017
1.824051270313573
1.6177981231403067
1.5501213092240786
2.146321812771801
2.5910551613641566
2.0593087663080794
1.4469947356374455
1.5791256580453192
1.8852826733806363
1.6210208285648888
1.8981734950789653
2.368688487067979
2.2526710917830166
1.8852826733806363
1.5597894254978255
1.3664271000228883
1.3535362783245595
1.5050034332799267
1.8337193865873196
2.1366536964980547
2.2526710917830166
1.4663309681849392
1.0183749141680019
1.4888899061570153
1.9787411306935223
1.3503135728999769
1.237518883039597
1.5114488441290912
1.7531517509727625
1.8562783245593957
1.2697459372854198
1.2342961776150148
1.6596932936598765
2.062531471732662
1.8949507896543831
1.3889860379949646
1.2794140535591667
1.395431448844129
2.2172213321126115
2.265561913481346
1.6210208285648888
1.430881208514534
1.5791256580453192
1.9207324330510414
1.4695536736095216
1.6500251773861294
2.2494483863584347
2.039972533760586
1.7080338750286106
1.56623483634699
1.711256580453193
2.0754222934309907
2.2494483863584347
2.268784618905928
2.210775921263447
1.9884092469672694
1.8079377431906614
1.5243396658274204
1.485667200732433
1.6758068207827879
2.2172213321126115
2.1817715724422064
1.981963836118105
1.6596932936598765
1.359981689173724
2.0786449988555735
2.0786449988555735
1.3986541542687112
2.0270817120622566
2.31390249485008
2.210775921263447
1.5468986037994965
1.4147676813916226
1.4921126115815975
1.9013962005035476
2.2494483863584347
2.1914396887159535
1.4888899061570153
1.2246280613412681
1.7499290455481802
2.1753261615930417
2.0141908903639276
1.4921126115815975
1.2600778210116732
1.7177019913023575
2.072199588006409
1.4373266193636987
0.42539711604486147
0.5929777981231402
1.2729686427100022
1.7015884641794459
1.4663309681849392
1.0022613870450903
1.3438681620508124
2.0109681849393453
1.8143831540398259
1.1827328908216983
1.8756145571068894
2.3010116731517507
1.9013962005035476
1.3793179217212175
1.882059967956054
2.4492561226825362
2.3848020141908903
1.7499290455481802
1.8788372625314715
2.5040421149004346
2.3300160219729915
1.9755184252689402
1.588793774319066
2.310679789425498
2.1817715724422064
1.4018768596932936
1.4824444953078508
2.1624353398947123
2.152767223620966
1.6919203479056992
1.3470908674753947
1.1537285420004577
1.9271778439002059
1.9722957198443578
1.3245319295033189
1.4341039139391165
1.6886976424811169
2.207553215838865
1.6983657587548637
1.2794140535591667
1.5597894254978255
2.2301121538109405
1.7724879835202563
1.2600778210116732
1.7338155184252688
2.1624353398947123
1.714479285877775
1.282636758983749
1.67902952620737
2.220444037537194
1.9884092469672694
1.2085145342183565
1.2858594644083312
2.165658045319295
2.2526710917830166
1.1601739528496224
1.543675898374914
2.072199588006409
1.769265278095674
1.1215014877546348
1.359981689173724
2.114094758525978
1.882059967956054
1.3309773403524832
1.1247241931792173
1.475999084458686
2.030304417486839
1.6532478828107118
1.2955275806820783
1.656470588235294
2.1237628747997253
1.8917280842298008
1.2568551155870908
1.1182787823300526
1.8627237354085602
2.0367498283360037
1.2310734721904324
1.3116411078049897
1.3857633325703822
1.7660425726710915
2.1495445181963837
1.9078416113527121
1.3567589837491416
1.4341039139391165
2.165658045319295
1.8949507896543831
1.4276585030899518
1.3632043945983061
1.711256580453193
2.143099107347219
1.882059967956054
1.3116411078049897
1.588793774319066
1.5146715495536736
1.8304966811627372
1.521116960402838
1.2890821698329138
1.746706340123598
2.2720073243305103
2.1108720531013963
1.6629159990844586
1.6596932936598765
2.1108720531013963
2.1205401693751433
1.6951430533302816
1.6403570611123826
1.7499290455481802
1.7982696269169145
1.4695536736095216
1.440549324788281
1.5404531929503318
1.981963836118105
2.204330510414282
1.6306889448386357
1.5275623712520026
1.9336232547493706
2.4073609521629664
1.9465140764476996
1.5952391851682308
1.7499290455481802
2.4557015335317005
2.197885099565118
1.5565667200732431
1.7757106889448386
2.4073609521629664
2.436365300984207
2.0109681849393453
1.4921126115815975
1.5340077821011673
2.101203936827649
2.4557015335317005
2.152767223620966
1.4921126115815975
1.4888899061570153
1.9722957198443578
2.1398764019226366
1.7241474021515222
1.1279468986037995
1.1472831311512932
1.4792217898832682
1.8949507896543831
1.7434836346990157
1.237518883039597
1.031265735866331
1.4179903868162052
1.9336232547493706
1.8885053788052186
1.405099565117876
0.941029983978027
1.0924971389333944
1.6274662394140536
1.9465140764476996
1.475999084458686
1.1086106660563058
1.395431448844129
2.0206363012130923
1.5050034332799267
1.2246280613412681
1.8917280842298008
2.719963378347448
2.810199130235752
2.255893797207599
1.827273975738155
2.0689768825818264
2.5491599908445868
2.323570611123827
1.6113527122911422
1.8143831540398259
2.439588006408789
2.3429068436713205
1.56623483634699
1.6822522316319524
2.436365300984207
2.278452735179675
1.7305928130006865
1.2246280613412681
1.2987502861066604
1.8304966811627372
2.0141908903639276
1.3245319295033189
1.211737239642939
1.6371343556878002
2.08831311512932
1.2504097047379261
1.5759029526207369
2.0593087663080794
2.114094758525978
1.9755184252689402
1.2987502861066604
1.4212130922407873
1.4888899061570153
2.31390249485008
2.143099107347219
1.6403570611123826
1.4502174410620279
1.7950469214923324
2.5910551613641566
2.255893797207599
1.6758068207827879
2.08831311512932
2.507264820325017
2.0109681849393453
1.4341039139391165
1.5694575417715724
2.1398764019226366
1.9722957198443578
1.4437720302128632
1.2600778210116732
1.4695536736095216
2.207553215838865
1.8401647974364843
1.4534401464866102
1.5340077821011673
2.4911512932021056
1.962627603570611
1.5501213092240786
1.9368459601739527
2.423474479285878
2.2494483863584347
1.5275623712520026
1.601684596017395
2.184994277866789
2.3010116731517507
2.0174135957885095
1.4115449759670404
1.4888899061570153
2.0689768825818264
2.1914396887159535
1.56623483634699
0.9603662165255207
0.5478599221789884
0.9088029297322041
0.6187594415197984
0.39317006179903863
0.7766720073243305
1.3213092240787365
1.0377111467154954
0.6445410849164569
1.3470908674753947
2.678068207827878
2.7135179674982832
2.033527122911421
2.052863355458915
2.8134218356603338
2.9326619363698785
1.869169146257725
2.317125200274662
2.665177386129549
1.79182421606775
1.824051270313573
2.2526710917830166
2.304234378576333
1.7338155184252688
1.7531517509727625
2.101203936827649
1.8788372625314715
1.3470908674753947
1.2310734721904324
1.2342961776150148
0.9764797436484322
1.0699382009613183
0.6219821469443808
0.48018310826276034
1.3503135728999769
1.2214053559166858
0.6252048523689631
2.2301121538109405
2.858539711604486
2.155989929045548
2.3880247196154722
3.0035614557106887
2.381579308766308
2.0786449988555735
2.574941634241245
1.827273975738155
2.3493522545204852
2.555605401693751
1.2600778210116732
0.5059647516594187
0.9700343327992675
0.39639276722362093
1.2633005264362553
1.066715495536736
0.6445410849164569
2.1495445181963837
2.2494483863584347
1.8433875028610665
2.668400091554131
2.072199588006409
1.7789333943694208
1.7595971618219273
2.481483176928359
1.5372304875257494
2.310679789425498
2.481483176928359
1.6983657587548637
2.710295262073701
1.9594048981460288
1.930400549324788
2.632950331883726
1.7982696269169145
1.9110643167772945
2.562050812542916
1.5952391851682308
2.204330510414282
1.6081300068665596
0.39639276722362093
0.6477637903410391
1.1601739528496224
1.0183749141680019
0.5349691004806592
1.5243396658274204
0.737999542229343
1.4985580224307622
1.8917280842298008
1.9368459601739527
2.9455527580682075
2.265561913481346
2.881098649576562
2.8134218356603338
1.9884092469672694
2.481483176928359
1.9755184252689402
2.0238590066376747
2.4782604715037766
0.737999542229343
0.7895628290226596
0.6413183794918745
1.3696498054474708
0.873353170061799
1.5340077821011673
1.7048111696040282
1.8143831540398259
2.655509269855802
2.246225680933852
1.711256580453193
1.8143831540398259
2.178548867017624
2.452478828107118
2.197885099565118
2.494373998626688
1.67902952620737
1.5597894254978255
1.827273975738155
2.4460334172579534
1.7821560997940031
1.5694575417715724
1.5275623712520026
1.5114488441290912
1.5823483634699016
2.2881208514534217
1.9690730144197757
2.320347905699245
1.9561821927214464
1.3986541542687112
1.90461890592813
2.0206363012130923
1.985186541542687
1.1827328908216983
1.8014923323414966
1.8176058594644082
1.0344884412909132
1.9078416113527121
1.3889860379949646
1.1537285420004577
1.1505058365758754
1.6532478828107118
2.665177386129549
1.7273701075761043
1.6210208285648888
1.601684596017395
2.3751338979171432
1.9916319523918515
2.204330510414282
1.4631082627603569
2.371911192492561
1.7305928130006865
2.436365300984207
1.8917280842298008
1.9271778439002059
2.197885099565118
2.359020370794232
1.4502174410620279
1.6081300068665596
1.5597894254978255
1.430881208514534
2.3751338979171432
1.5468986037994965
1.849832913710231
2.3622430762188142
1.4502174410620279
1.517894254978256
2.339684138246738
2.197885099565118
2.2881208514534217
2.346129549095903
1.6951430533302816
2.2011078049897
2.0689768825818264
1.4663309681849392
2.1624353398947123
1.8659464408331423
1.3664271000228883
1.3567589837491416
2.2945662623025864
1.756374456397345
1.656470588235294

 begin log for calibration v12021-02-171.2246280613412681
3.2227054245822844
3.2227054245822844
2.317125200274662
2.7360769054703593
3.2259281300068663
2.9681116960402836
2.039972533760586
2.346129549095903
2.6265049210345617
1.746706340123598
0.9764797436484322
0.3480521858548867
0.5704188601510644
1.1859555962462804
1.7273701075761043
1.8304966811627372
1.9594048981460288
1.9529594872968643
2.204330510414282
1.3503135728999769
2.378356603341726
2.1108720531013963
0.9474753948271916
0.34160677500572206
0.52207827878233
1.1118333714808881
1.8433875028610665
0.8153444724193178
0.6380956740672923
1.0280430304417487
1.9884092469672694
1.2536324101625085
0.8991348134584572
0.8636850537880522
1.1988464179446097
1.8530556191348135
2.210775921263447
2.3429068436713205
2.346129549095903
1.7789333943694208
1.5082261387045088
1.1215014877546348
0.9668116273746853
2.3074570840009154
2.3429068436713205
2.210775921263447
1.9110643167772945
1.656470588235294
1.2536324101625085
1.1730647745479514
0.9925932707713435
0.8701304646372168
0.9635889219501029
0.8926894026092926
2.1753261615930417
2.259116502632181
1.90461890592813
1.981963836118105
1.1956237125200275
1.2181826504921034
1.0377111467154954
1.0957198443579768
1.0344884412909132
1.395431448844129
1.1827328908216983
3.1356923781185624
1.737038223849851
1.1956237125200275
2.584609750514992
2.0593087663080794
2.429919890135042
2.197885099565118
1.5340077821011673
1.4921126115815975
2.3654657816433966
2.062531471732662
1.6403570611123826
2.3622430762188142
1.057047379262989
1.0054840924696726
1.0634927901121538
2.1044266422522315
2.3074570840009154
2.603945983062485
2.039972533760586
1.2214053559166858
0.7670038910505836
1.746706340123598
2.155989929045548
2.7328542000457765
3.0454566262302585
2.5781643396658276
2.2365575646601052
1.9336232547493706
2.7296314946211946
1.3889860379949646
1.6468024719615473
1.134392309452964
1.827273975738155
2.246225680933852
2.0367498283360037
0.9023575188830396
0.8024536507209887
1.3535362783245595
1.7209246967269396
1.102165255207141
0.7122178988326848
0.6896589608606087
0.6606546120393683
0.6542092011902036
0.9506981002517738
0.6896589608606087
0.6671000228885328
2.297788967727169
3.0583474479285875
2.0915358205539025
0.6735454337376974
0.6832135500114441
1.3889860379949646
1.134392309452964
1.714479285877775
3.2291508354314487
3.2259281300068663
2.4492561226825362
2.597500572213321
1.3793179217212175
1.588793774319066
0.7251087205310139
0.6993270771343556
3.2323735408560306
2.8359807736324103
1.985186541542687
3.2291508354314487
1.4115449759670404
0.7089951934081026
1.214959945067521
2.346129549095903
2.6619546807049663
3.2323735408560306
3.2259281300068663
2.2365575646601052
2.5169329365987636
1.3084184023804073
0.7283314259555962
1.6177981231403067
2.065754177157244
3.2291508354314487
2.08831311512932
3.2323735408560306
3.0164522774090177
0.6542092011902036
1.6886976424811169
0.6671000228885328
2.5104875257495993
2.4492561226825362
2.984225223163195
1.9561821927214464
3.2291508354314487
1.9529594872968643
0.9023575188830396
1.7628198672465094
1.3406454566262302
2.4653696498054476
2.4782604715037766
2.2526710917830166
2.5684962233920805
1.2278507667658503
1.5565667200732431
0.7734493018997483
1.4566628519111924
1.8917280842298008
2.481483176928359
2.4975967040512703
2.2752300297550923
2.085090409704738
1.15695124742504
1.9529594872968643
0.8153444724193178
2.133430991073472
1.3148638132295718
3.2259281300068663
2.703849851224536
2.1237628747997253
2.359020370794232
1.1440604257267109
2.323570611123827
1.2633005264362553
1.6693614099336231
3.2259281300068663
2.9326619363698785
2.9455527580682075
1.4179903868162052
1.7402609292744335
1.3567589837491416
0.5833096818493934
0.9603662165255207
1.7853788052185853
0.8314579995422293
1.3438681620508124
2.697404440375372
1.5565667200732431
1.5275623712520026
2.562050812542916
1.737038223849851
1.3632043945983061
2.5910551613641566
2.6716227969787134
2.0077454795147633
1.7015884641794459
2.5233783474479283
2.2494483863584347
2.001300068665598
2.001300068665598
2.2172213321126115
2.197885099565118
2.494373998626688
1.0634927901121538
0.8314579995422293
1.8949507896543831
2.065754177157244
0.5800869764248112
0.6155367360952162
1.4018768596932936
0.737999542229343
0.8991348134584572
1.0409338521400777
2.062531471732662
2.381579308766308
1.2278507667658503
1.5340077821011673
2.371911192492561
3.2227054245822844
3.06157015335317
2.7231860837720303
2.0206363012130923
1.1053879606317234
1.2761913481345846
1.2697459372854198
0.9281391622796978
0.5833096818493934
0.5704188601510644
0.5768642710002289
0.6058686198214694
1.849832913710231
2.278452735179675
2.816644541084916
1.292304875257496
0.5768642710002289
0.5736415655756466
0.5736415655756466
0.8185671778439001
0.6284275577935454
0.5929777981231402
1.0054840924696726
1.5823483634699016
1.1118333714808881
1.3664271000228883
1.5952391851682308
2.665177386129549
2.4041382467383836
2.368688487067979
2.942330052643625
1.930400549324788
1.3148638132295718
1.2761913481345846
2.2301121538109405
2.1946623941405354
2.065754177157244
1.9013962005035476
2.5362691691462578
1.1505058365758754
0.9120256351567865
0.873353170061799
1.8176058594644082
1.8401647974364843
1.7982696269169145
1.8627237354085602
2.8553170061799036
2.2172213321126115
1.6758068207827879
2.378356603341726
2.703849851224536
2.6232822156099793
2.6490638590066378
2.31390249485008
2.304234378576333
2.1237628747997253
1.9142870222018766
1.9432913710231172
1.5952391851682308
1.1956237125200275
1.1666193636987867
1.2246280613412681
1.2729686427100022
1.5275623712520026
1.7660425726710915
2.268784618905928
2.5169329365987636
2.6716227969787134
2.5362691691462578
1.8466102082856488
1.4888899061570153
1.4534401464866102
1.372872510872053
1.237518883039597
1.1440604257267109
1.521116960402838
2.2752300297550923
2.4331425955596244
2.2011078049897
1.15695124742504
1.3857633325703822
2.2752300297550923
2.584609750514992
2.4653696498054476
2.5137102311741817
1.485667200732433
1.1247241931792173
1.0409338521400777
1.6629159990844586
2.317125200274662
2.529823758297093
1.7853788052185853
1.0634927901121538
1.359981689173724
2.317125200274662
2.320347905699245
1.1150560769054703
1.3148638132295718
3.2259281300068663
2.4428107118333715
0.9797024490730144
0.8636850537880522
1.633911650263218
2.246225680933852
2.2720073243305103
0.9474753948271916
1.189178301670863
2.3751338979171432
1.2858594644083312
1.0022613870450903
2.339684138246738
1.4663309681849392
1.1666193636987867
2.429919890135042
1.4341039139391165
1.3470908674753947
2.3654657816433966
1.102165255207141
1.3084184023804073
1.7305928130006865
2.381579308766308
1.1118333714808881
2.001300068665598
2.1592126344701303
1.0699382009613183
2.542714579995422
1.1247241931792173
2.4975967040512703
1.3438681620508124
2.0496406500343327
1.3986541542687112
1.8917280842298008
2.184994277866789
1.0957198443579768
2.42669718471046
1.7273701075761043
1.0634927901121538
2.4460334172579534
1.0699382009613183
2.255893797207599
1.3470908674753947
1.6661387045090408
1.7724879835202563
1.3632043945983061
2.094758525978485
1.7628198672465094
1.6854749370565345
1.6758068207827879
1.714479285877775
1.4824444953078508
2.4009155413138017
1.0280430304417487
2.507264820325017
1.1666193636987867
2.4492561226825362
1.0924971389333944
2.529823758297093
1.0860517280842297
2.5813870450904095
1.1537285420004577
2.4138063630121307
1.4018768596932936
2.0206363012130923
2.1044266422522315
2.184994277866789
2.4557015335317005
2.317125200274662
1.3503135728999769
2.893989471274891
1.2987502861066604
2.001300068665598
1.5372304875257494
0.9216937514305332
2.268784618905928
1.4469947356374455
1.1440604257267109
2.320347905699245
0.941029983978027
1.827273975738155
1.9465140764476996
0.8862439917601281
2.391247425040055
1.0957198443579768
1.2181826504921034
0.9700343327992675
1.3438681620508124
2.304234378576333
0.9732570382238498
1.9722957198443578
2.255893797207599
1.0022613870450903
1.6629159990844586
2.3622430762188142
1.2246280613412681
1.4437720302128632
2.42669718471046
1.6274662394140536
1.1440604257267109
3.2259281300068663
1.5340077821011673
1.1247241931792173
2.268784618905928
1.5791256580453192
0.7960082398718241
1.543675898374914
3.142137788967727
3.2259281300068663
3.2259281300068663
3.2259281300068663
0.5929777981231402
0.6252048523689631
2.481483176928359
3.051902037079423
2.816644541084916
3.2227054245822844
3.093797207598993
0.5736415655756466
0.5704188601510644
3.155028610666056
3.2259281300068663
3.2259281300068663
3.2259281300068663
0.5736415655756466
0.5704188601510644
0.589755092698558
3.2130373083085373
3.2259281300068663
3.2259281300068663
3.2259281300068663
1.5952391851682308
0.9345845731288625
0.6606546120393683
2.3880247196154722
2.3622430762188142
1.6177981231403067
1.7724879835202563
0.941029983978027
0.544637216754406
0.5349691004806592
3.0164522774090177
3.2259281300068663
3.2259281300068663
3.2259281300068663
3.2259281300068663
0.544637216754406
0.5414145113298238
1.0151522087434195
1.8949507896543831
2.31390249485008
2.6007232776379032
3.2259281300068663
3.2259281300068663
0.5381918059052415
0.5381918059052415
0.544637216754406
2.107649347676814
2.278452735179675
2.542714579995422
2.6619546807049663
0.8507942320897229
0.5381918059052415
0.544637216754406
0.5381918059052415
3.2259281300068663
3.2259281300068663
3.2259281300068663
3.2259281300068663
0.5510826276035705
0.5543053330281529
0.5704188601510644
2.562050812542916
3.2259281300068663
3.2259281300068663
3.2259281300068663
2.6297276264591436
1.169842069123369
0.7541130693522544
2.1366536964980547
3.2259281300068663
3.2259281300068663
3.2259281300068663
3.2259281300068663
0.9603662165255207
0.5929777981231402
0.5994232089723048
0.9925932707713435
3.1711421377889675
3.2259281300068663
3.2259281300068663
3.2291508354314487
1.1505058365758754
0.5575280384527351
0.5768642710002289
0.5833096818493934
2.6136140993362322
3.155028610666056
2.858539711604486
2.346129549095903
1.8176058594644082
0.5929777981231402
0.5929777981231402
0.5929777981231402
2.819867246509499
3.042233920805676
2.2430029755092695
1.869169146257725
2.197885099565118
1.7982696269169145
0.6058686198214694
0.6187594415197984
0.7412222476539254
3.2259281300068663
3.2259281300068663
3.2259281300068663
3.2291508354314487
2.6587319752803844
0.6252048523689631
0.783117418173495
0.895912108033875
3.0680155642023346
3.2259281300068663
3.2259281300068663
3.2227054245822844
3.2227054245822844
0.6477637903410391
0.6413183794918745
0.6348729686427099
1.9884092469672694
2.645841153582055
2.475037766079194
2.7715266651407644
0.6477637903410391
0.6348729686427099
0.6348729686427099
0.6413183794918745
2.5459372854200044
3.2291508354314487
3.2291508354314487
3.2259281300068663
3.2259281300068663
1.4341039139391165
0.6542092011902036
0.7444449530785077
0.7508903639276722
2.8456488899061565
3.2259281300068663
2.8520943007553217
2.8069764248111695
2.2430029755092695
0.7670038910505836
0.6445410849164569
0.9732570382238498
1.089274433508812
1.9980773632410163
1.6210208285648888
1.1601739528496224
0.6219821469443808
0.6477637903410391
1.8852826733806363
2.7006271457999538
1.9561821927214464
0.9764797436484322
2.4009155413138017
1.7628198672465094
1.3342000457770655
1.9884092469672694
1.4921126115815975
0.6896589608606087
1.5823483634699016
0.8797985809109636
0.7702265964751659
2.072199588006409
1.7757106889448386
1.0506019684138246
1.4179903868162052
1.9013962005035476
0.8797985809109636
0.9861478599221789
1.6371343556878002
1.0860517280842297
1.089274433508812
1.4437720302128632
1.8304966811627372
1.6919203479056992
0.8411261158159762
1.4147676813916226
1.5501213092240786
0.8797985809109636
1.9722957198443578
1.6951430533302816
0.7992309452964065
2.0206363012130923
2.1173174639505605
