time (s)	EOG (volts)0	1.807937743
0.002	1.643579767	
0.004	2.146321813	
0.006	1.843387503	
0.008	1.440549325	
0.01	1.933623255	
0.012	1.891728084	
0.014	1.350313573	
0.016	1.579125658	
0.018	1.952959487	
0.02	1.450217441	
0.022	1.250409705	
0.024	1.833719387	
0.026	1.927177844	
0.028	1.292304875	
0.03	1.359981689	
0.032	1.994854658	
0.034	1.730592813	
0.036	1.21173724	
0.038	1.534007782	
0.04	2.065754177	
0.042	1.550121309	
0.044	1.173064775	
0.046	1.675806821	
0.048	1.943291371	
0.05	1.372872511	
0.052	1.198846418	
0.054	1.740260929	
0.056	1.788601511	
0.058	1.231073472	
0.06	1.224628061	
0.062	1.71125658	
0.064	1.778933394	
0.066	1.269745937	
0.068	1.263300526	
0.07	1.682252232	
0.072	1.811160449	
0.074	1.295527581	
0.076	1.115056077	
0.078	1.498558022	
0.08	1.791824216	
0.082	1.434103914	
0.084	1.234296178	
0.086	1.498558022	
0.088	1.7821561	
0.09	1.495335317	
0.092	1.121501488	
0.094	1.33097734	
0.096	1.766042573	
0.098	1.653247883	
0.1	1.163396658	
0.102	1.214959945	
0.104	1.71125658	
0.106	1.643579767	
0.108	1.076383612	
0.11	1.115056077	
0.112	1.646802472	
0.114	1.691920348	
0.116	1.092497139	
0.118	1.015152209	
0.12	1.572680247	
0.122	1.71125658	
0.124	1.147283131	
0.126	0.992593271	
0.128	1.51467155	
0.13	1.74670634	
0.132	1.25363241	
0.134	0.953920806	
0.136	1.350313573	
0.138	1.682252232	
0.14	1.318086519	
0.142	0.941029984	
0.144	1.21818265	
0.146	1.643579767	
0.148	1.421213092	
0.15	1.011929503	
0.152	1.163396658	
0.154	1.646802472	
0.156	1.501780728	
0.158	0.966811627	
0.16	1.037711147	
0.162	1.55656672	
0.164	1.52111696	
0.166	0.992593271	
0.168	0.937807279	
0.17	1.47922179	
0.172	1.543675898	
0.174	1.060270085	
0.176	0.937807279	
0.178	1.411544976	
0.18	1.559789425	
0.182	1.108610666	
0.184	0.915248341	
0.186	1.314863813	
0.188	1.553344015	
0.19	1.195623713	
0.192	0.876575875	
0.194	1.195623713	
0.196	1.608130007	
0.198	1.308418402	
0.2	0.825012589	
0.202	1.057047379	
0.204	1.627466239	
0.206	1.430881209	
0.208	0.866907759	
0.21	0.98614786	
0.212	1.679029526	
0.214	1.534007782	
0.216	0.918471046	
0.218	0.924916457	
0.22	1.630688945	
0.222	1.630688945	
0.224	0.979702449	
0.226	0.895912108	
0.228	1.511448844	
0.23	1.621020829	
0.232	1.031265736	
0.234	0.844348821	
0.236	1.421213092	
0.238	1.621020829	
0.24	1.118278782	
0.242	0.915248341	
0.244	1.356758984	
0.246	1.617798123	
0.248	1.231073472	
0.25	0.886243992	
0.252	1.243964294	
0.254	1.624243534	
0.256	1.308418402	
0.258	0.886243992	
0.26	1.102165255	
0.262	1.537230488	
0.264	1.369649805	
0.266	0.999038682	
0.268	1.118278782	
0.27	1.569457542	
0.272	1.475999084	
0.274	1.06349279	
0.276	1.073160906	
0.278	1.501780728	
0.28	1.495335317	
0.282	1.105387961	
0.284	0.973257038	
0.286	1.382540627	
0.288	1.501780728	
0.29	1.485667201	
0.292	1.530785077	
0.294	1.002261387	
0.296	0.941029984	
0.298	1.421213092	
0.3	1.553344015	
0.302	1.018374914	
0.304	0.876575875	
0.306	1.424435798	
0.308	1.74670634	
0.31	1.156951247	
0.312	0.915248341	
0.314	1.356758984	
0.316	1.801492332	
0.318	1.282636759	
0.32	0.953920806	
0.322	1.359981689	
0.324	1.798269627	
0.326	1.369649805	
0.328	0.90880293	
0.33	1.243964294	
0.332	1.71125658	
0.334	1.414767681	
0.336	0.937807279	
0.338	1.195623713	
0.34	1.659693294	
0.342	1.450217441	
0.344	0.947475395	
0.346	1.092497139	
0.348	1.585571069	
0.35	1.505003433	
0.352	1.037711147	
0.354	1.124724193	
0.356	1.52111696	
0.358	1.569457542	
0.36	1.066715496	
0.362	1.069938201	
0.364	1.430881209	
0.366	1.617798123	
0.368	1.298750286	
0.37	1.086051728	
0.372	1.359981689	
0.374	1.611352712	
0.376	1.347090867	
0.378	1.031265736	
0.38	1.28908217	
0.382	1.637134356	
0.384	1.234296178	
0.386	1.733815518	
0.388	1.659693294	
0.39	1.185955596	
0.392	1.411544976	
0.394	2.107649348	
0.396	2.114094759	
0.398	1.575902953	
0.4	1.675806821	
0.402	2.371911192	
0.404	2.487928588	
0.406	1.901396201	
0.408	1.904618906	
0.41	2.591055161	
0.412	2.642618448	
0.414	2.039972534	
0.416	1.927177844	
0.418	2.57816434	
0.42	2.748967727	
0.422	2.223666743	
0.424	2.056086061	
0.426	2.545937285	
0.428	2.76830396	
0.43	2.249448386	
0.432	1.946514076	
0.434	2.320347906	
0.436	2.661954681	
0.438	2.301011673	
0.44	2.004522774	
0.442	2.210775921	
0.444	2.545937285	
0.446	2.230112154	
0.448	1.811160449	
0.45	1.969073014	
0.452	2.42991989	
0.454	2.243002976	
0.456	1.753151751	
0.458	1.775710689	
0.46	2.297788968	
0.462	2.278452735	
0.464	1.775710689	
0.466	1.63391165	
0.468	2.130208286	
0.47	2.172103456	
0.472	1.621020829	
0.474	1.408322271	
0.476	1.923955138	
0.478	2.120540169	
0.48	1.588793774	
0.482	1.272968643	
0.484	1.643579767	
0.486	1.943291371	
0.488	1.572680247	
0.49	1.173064775	
0.492	1.524339666	
0.494	1.969073014	
0.496	1.688697642	
0.498	1.150505837	
0.5	1.301972992	
0.502	1.775710689	
0.504	1.675806821	
0.506	1.214959945	
0.508	1.311641108	
0.51	1.727370108	
0.512	1.695143053	
0.514	1.195623713	
0.516	1.192401007	
0.518	1.611352712	
0.52	1.71125658	
0.522	1.337422751	
0.524	1.17628748	
0.526	1.492112612	
0.528	1.691920348	
0.53	1.398654154	
0.532	1.076383612	
0.534	1.353536278	
0.536	1.695143053	
0.538	1.527562371	
0.54	1.092497139	
0.542	1.263300526	
0.544	1.653247883	
0.546	1.501780728	
0.548	0.976479744	
0.55	1.115056077	
0.552	1.70481117	
0.554	1.688697642	
0.556	1.066715496	
0.558	1.06349279	
0.56	1.675806821	
0.562	1.727370108	
0.564	1.082829023	
0.566	0.999038682	
0.568	1.637134356	
0.57	1.82405127	
0.572	1.221405356	
0.574	1.005484092	
0.576	1.524339666	
0.578	1.733815518	
0.58	1.266523232	
0.582	0.957143511	
0.584	1.385763333	
0.586	1.66936141	
0.588	1.263300526	
0.59	0.870130465	
0.592	1.173064775	
0.594	1.59201648	
0.596	1.356758984	
0.598	0.9506981	
0.6	1.095719844	
0.602	1.575902953	
0.604	1.456662852	
0.606	0.992593271	
0.608	1.060270085	
0.61	1.59201648	
0.612	1.595239185	
0.614	1.14083772	
0.616	1.066715496	
0.618	1.52111696	
0.62	1.595239185	
0.622	1.137615015	
0.624	0.966811627	
0.626	1.437326619	
0.628	1.624243534	
0.63	1.231073472	
0.632	0.918471046	
0.634	1.256855116	
0.636	1.601684596	
0.638	1.263300526	
0.64	0.863685054	
0.642	1.137615015	
0.644	1.630688945	
0.646	1.430881209	
0.648	0.957143511	
0.65	1.111833371	
0.652	1.688697642	
0.654	1.582348363	
0.656	1.015152209	
0.658	1.060270085	
0.66	1.685474937	
0.662	1.637134356	
0.664	1.082829023	
0.666	1.008706798	
0.668	1.569457542	
0.67	1.63391165	
0.672	1.105387961	
0.674	1.59201648	
0.676	1.044156558	
0.678	0.886243992	
0.68	1.398654154	
0.682	1.55656672	
0.684	1.092497139	
0.686	1.002261387	
0.688	1.430881209	
0.69	1.675806821	
0.692	1.221405356	
0.694	0.921693751	
0.696	1.32453193	
0.698	1.695143053	
0.7	1.363204395	
0.702	1.050601968	
0.704	1.28908217	
0.706	1.82405127	
0.708	1.501780728	
0.71	0.989370565	
0.712	1.134392309	
0.714	1.598461891	
0.716	1.505003433	
0.718	1.079606317	
0.72	1.173064775	
0.722	1.691920348	
0.724	1.604907301	
0.726	1.008706798	
0.728	1.02159762	
0.73	1.563012131	
0.732	1.579125658	
0.734	1.034488441	
0.736	0.963588922	
0.738	1.51467155	
0.74	1.627466239	
0.742	1.102165255	
0.744	0.995815976	
0.746	1.414767681	
0.748	1.811160449	
0.75	1.350313573	
0.752	1.092497139	
0.754	1.385763333	
0.756	1.685474937	
0.758	1.314863813	
0.76	0.960366217	
0.762	1.189178302	
0.764	1.672584115	
0.766	1.501780728	
0.768	1.14083772	
0.77	1.25363241	
0.772	1.708033875	
0.774	1.55656672	
0.776	1.060270085	
0.778	1.156951247	
0.78	1.679029526	
0.782	1.566234836	
0.784	1.066715496	
0.786	1.031265736	
0.788	1.691920348	
0.79	1.756374456	
0.792	1.173064775	
0.794	1.160173953	
0.796	1.598461891	
0.798	1.791824216	
0.8	1.256855116	
0.802	0.999038682	
0.804	1.472776379	
0.806	1.743483635	
0.808	1.379317922	
0.81	1.034488441	
0.812	1.372872511	
0.814	1.843387503	
0.816	1.469553674	
0.818	1.150505837	
0.82	1.314863813	
0.822	1.691920348	
0.824	1.482444495	
0.826	1.02804303	
0.828	1.234296178	
0.83	1.795046921	
0.832	1.582348363	
0.834	1.124724193	
0.836	1.17628748	
0.838	1.714479286	
0.84	1.672584115	
0.842	1.06349279	
0.844	0.953920806	
0.846	1.566234836	
0.848	1.588793774	
0.85	1.024820325	
0.852	0.963588922	
0.854	1.540453193	
0.856	1.71125658	
0.858	1.247186999	
0.86	1.121501488	
0.862	1.495335317	
0.864	1.650025177	
0.866	1.224628061	
0.868	0.944252689	
0.87	1.376095216	
0.872	1.685474937	
0.874	1.234296178	
0.876	0.934584573	
0.878	1.276191348	
0.88	1.785378805	
0.882	1.517894255	
0.884	0.979702449	
0.886	1.205291829	
0.888	1.659693294	
0.89	1.440549325	
0.892	0.9506981	
0.894	1.050601968	
0.896	1.614575418	
0.898	1.55656672	
0.9	1.150505837	
0.902	1.202069123	
0.904	1.611352712	
0.906	1.63391165	
0.908	1.121501488	
0.91	1.050601968	
0.912	1.582348363	
0.914	1.601684596	
0.916	1.102165255	
0.918	1.011929503	
0.92	1.524339666	
0.922	1.74670634	
0.924	1.227850767	
0.926	1.037711147	
0.928	1.44377203	
0.93	1.714479286	
0.932	1.363204395	
0.934	1.015152209	
0.936	1.305195697	
0.938	1.720924697	
0.94	1.498558022	
0.942	1.134392309	
0.944	1.282636759	
0.946	1.672584115	
0.948	1.543675898	
0.95	1.09894255	
0.952	1.308418402	
0.954	1.733815518	
0.956	1.604907301	
0.958	1.111833371	
0.96	1.153728542	
0.962	1.749929046	
0.964	1.662915999	
0.966	1.108610666	
0.968	1.111833371	
0.97	1.575902953	
0.972	1.788601511	
0.974	1.260077821	
0.976	1.092497139	
0.978	1.55656672	
0.98	1.737038224	
0.982	1.3664271	
0.984	1.066715496	
0.986	1.40187686	
0.988	1.759597162	
0.99	1.417990387	
0.992	1.134392309	
0.994	1.359981689	
0.996	1.778933394	
0.998	1.582348363	
1	1.131169604	
1.002	1.311641108	
1.004	1.769265278	
1.006	1.640357061	
1.008	1.147283131	
1.01	1.214959945	
1.012	1.811160449	
1.014	1.608130007	
1.016	1.108610666	
1.018	1.285859464	
1.02	1.74670634	
1.022	1.66936141	
1.024	1.202069123	
1.026	1.25363241	
1.028	1.7821561	
1.03	1.753151751	
1.032	1.224628061	
1.034	1.17628748	
1.036	1.675806821	
1.038	1.830496681	
1.04	1.32453193	
1.042	1.21173724	
1.044	1.698365759	
1.046	1.901396201	
1.048	1.47922179	
1.05	1.156951247	
1.052	1.540453193	
1.054	1.914287022	
1.056	1.563012131	
1.058	1.198846418	
1.06	1.437326619	
1.062	1.93684596	
1.064	1.646802472	
1.066	1.21818265	
1.068	1.437326619	
1.07	1.872391852	
1.072	1.70481117	
1.074	1.272968643	
1.076	1.372872511	
1.078	1.856278325	
1.08	1.762819867	
1.082	1.347090867	
1.084	1.392208743	
1.086	1.856278325	
1.088	1.869169146	
1.09	1.337422751	
1.092	1.263300526	
1.094	1.70481117	
1.096	1.82405127	
1.098	1.372872511	
1.1	1.173064775	
1.102	1.595239185	
1.104	1.89495079	
1.106	1.469553674	
1.108	1.208514534	
1.11	1.55656672	
1.112	1.904618906	
1.114	1.527562371	
1.116	1.108610666	
1.118	1.417990387	
1.12	1.840164797	
1.122	1.579125658	
1.124	1.260077821	
1.126	1.376095216	
1.128	1.856278325	
1.13	1.74670634	
1.132	1.263300526	
1.134	1.318086519	
1.136	1.875614557	
1.138	1.827273976	
1.14	1.321309224	
1.142	1.237518883	
1.144	1.865946441	
1.146	1.940068666	
1.148	1.392208743	
1.15	1.21818265	
1.152	1.659693294	
1.154	1.856278325	
1.156	1.534007782	
1.158	1.237518883	
1.16	1.563012131	
1.162	1.853055619	
1.164	1.59201648	
1.166	1.314863813	
1.168	1.51467155	
1.17	1.885282673	
1.172	1.59201648	
1.174	1.182732891	
1.176	1.427658503	
1.178	1.875614557	
1.18	1.740260929	
1.182	1.224628061	
1.184	1.32453193	
1.186	2.00774548	
1.188	1.956182193	
1.19	1.231073472	
1.192	1.472776379	
1.194	1.882059968	
1.196	1.608130007	
1.198	1.185955596	
1.2	1.411544976	
1.202	1.869169146	
1.204	1.756374456	
1.206	1.28908217	
1.208	1.398654154	
1.21	1.833719387	
1.212	1.679029526	
1.214	1.250409705	
1.216	1.385763333	
1.218	1.833719387	
1.22	1.788601511	
1.222	1.285859464	
1.224	1.247186999	
1.226	1.843387503	
1.228	1.872391852	
1.23	1.353536278	
1.232	1.208514534	
1.234	1.627466239	
1.236	1.991631952	
1.238	1.495335317	
1.24	1.240741588	
1.242	1.595239185	
1.244	1.885282673	
1.246	1.585571069	
1.248	1.25363241	
1.25	1.534007782	
1.252	1.875614557	
1.254	1.624243534	
1.256	1.292304875	
1.258	1.482444495	
1.26	1.85950103	
1.262	1.691920348	
1.264	1.173064775	
1.266	1.269745937	
1.268	1.775710689	
1.27	1.727370108	
1.272	1.234296178	
1.274	1.240741588	
1.276	1.927177844	
1.278	1.933623255	
1.28	1.363204395	
1.282	1.250409705	
1.284	1.740260929	
1.286	1.962627604	
1.288	1.434103914	
1.29	1.198846418	
1.292	1.611352712	
1.294	1.833719387	
1.296	1.527562371	
1.298	1.247186999	
1.3	1.550121309	
1.302	1.882059968	
1.304	1.640357061	
1.306	1.353536278	
1.308	1.530785077	
1.31	1.901396201	
1.312	1.688697642	
1.314	1.234296178	
1.316	1.327754635	
1.318	1.804715038	
1.32	1.753151751	
1.322	1.263300526	
1.324	1.285859464	
1.326	1.849832914	
1.328	1.907841611	
1.33	1.33097734	
1.332	1.250409705	
1.334	1.720924697	
1.336	1.898173495	
1.338	1.463108263	
1.34	1.263300526	
1.342	1.646802472	
1.344	1.865946441	
1.346	1.517894255	
1.348	1.363204395	
1.35	1.66936141	
1.352	1.89495079	
1.354	1.569457542	
1.356	1.301972992	
1.358	1.537230488	
1.36	1.888505379	
1.362	1.653247883	
1.364	1.260077821	
1.366	1.492112612	
1.368	1.991631952	
1.37	1.807937743	
1.372	1.311641108	
1.374	1.392208743	
1.376	1.985186542	
1.378	2.004522774	
1.38	1.408322271	
1.382	1.353536278	
1.384	1.856278325	
1.386	1.917509728	
1.388	1.475999084	
1.39	1.33097734	
1.392	1.82405127	
1.394	1.949736782	
1.396	1.52111696	
1.398	1.437326619	
1.4	1.749929046	
1.402	2.017413596	
1.404	1.59201648	
1.406	1.282636759	
1.408	1.601684596	
1.41	1.917509728	
1.412	1.59201648	
1.414	1.272968643	
1.416	1.546898604	
1.418	2.04964065	
1.42	1.727370108	
1.422	1.353536278	
1.424	1.559789425	
1.426	1.959404898	
1.428	1.74670634	
1.43	1.269745937	
1.432	1.379317922	
1.434	1.865946441	
1.436	1.733815518	
1.438	1.3664271	
1.44	1.446994736	
1.442	1.965850309	
1.444	1.878837263	
1.446	1.388986038	
1.448	1.430881209	
1.45	1.901396201	
1.452	1.853055619	
1.454	1.356758984	
1.456	1.292304875	
1.458	1.888505379	
1.46	1.965850309	
1.462	1.446994736	
1.464	1.347090867	
1.466	1.724147402	
1.468	2.017413596	
1.47	1.546898604	
1.472	1.224628061	
1.474	1.588793774	
1.476	1.849832914	
1.478	1.627466239	
1.48	1.321309224	
1.482	1.595239185	
1.484	1.898173495	
1.486	1.588793774	
1.488	1.372872511	
1.49	1.608130007	
1.492	1.907841611	
1.494	1.650025177	
1.496	1.214959945	
1.498	1.495335317	
1.5	1.998077363	
1.502	1.778933394	
1.504	1.227850767	
1.506	1.327754635	
1.508	1.985186542	
1.51	1.998077363	
1.512	1.3664271	
1.514	1.28908217	
1.516	1.788601511	
1.518	1.885282673	
1.52	1.417990387	
1.522	1.282636759	
1.524	1.724147402	
1.526	1.869169146	
1.528	1.47922179	
1.53	1.475999084	
1.532	1.788601511	
1.534	1.917509728	
1.536	1.453440146	
1.538	1.305195697	
1.54	1.730592813	
1.542	1.901396201	
1.544	1.482444495	
1.546	1.214959945	
1.548	1.637134356	
1.55	2.036749828	
1.552	1.624243534	
1.554	1.353536278	
1.556	1.608130007	
1.558	2.01419089	
1.56	1.675806821	
1.562	1.340645457	
1.564	1.579125658	
1.566	1.917509728	
1.568	1.71125658	
1.57	1.353536278	
1.572	1.52111696	
1.574	1.985186542	
1.576	1.74670634	
1.578	1.363204395	
1.58	1.495335317	
1.582	1.998077363	
1.584	1.840164797	
1.586	1.314863813	
1.588	1.347090867	
1.59	1.911064317	
1.592	1.843387503	
1.594	1.372872511	
1.596	1.353536278	
1.598	1.875614557	
1.6	1.940068666	
1.602	1.472776379	
1.604	1.356758984	
1.606	1.820828565	
1.608	1.988409247	
1.61	1.485667201	
1.612	1.33097734	
1.614	1.698365759	
1.616	1.907841611	
1.618	1.469553674	
1.62	1.234296178	
1.622	1.604907301	
1.624	1.933623255	
1.626	1.585571069	
1.628	1.266523232	
1.63	1.582348363	
1.632	1.969073014	
1.634	1.695143053	
1.636	1.321309224	
1.638	1.575902953	
1.64	2.023859007	
1.642	1.82405127	
1.644	1.363204395	
1.646	1.47922179	
1.648	1.959404898	
1.65	1.878837263	
1.652	1.321309224	
1.654	1.414767681	
1.656	1.988409247	
1.658	1.988409247	
1.66	1.430881209	
1.662	1.385763333	
1.664	1.869169146	
1.666	1.904618906	
1.668	1.463108263	
1.67	1.382540627	
1.672	1.869169146	
1.674	2.00774548	
1.676	1.524339666	
1.678	1.411544976	
1.68	1.785378805	
1.682	2.01419089	
1.684	1.617798123	
1.686	1.376095216	
1.688	1.672584115	
1.69	2.00774548	
1.692	1.688697642	
1.694	1.343868162	
1.696	1.55656672	
1.698	1.981963836	
1.7	1.791824216	
1.702	1.321309224	
1.704	1.456662852	
1.706	1.97229572	
1.708	1.901396201	
1.71	1.437326619	
1.712	1.47922179	
1.714	1.927177844	
1.716	1.869169146	
1.718	1.369649805	
1.72	1.347090867	
1.722	1.82405127	
1.724	1.962627604	
1.726	1.472776379	
1.728	1.388986038	
1.73	1.827273976	
1.732	2.017413596	
1.734	1.585571069	
1.736	1.305195697	
1.738	1.666138705	
1.74	2.020636301	
1.742	1.650025177	
1.744	1.408322271	
1.746	1.659693294	
1.748	2.036749828	
1.75	1.830496681	
1.752	1.359981689	
1.754	1.505003433	
1.756	2.01419089	
1.758	1.891728084	
1.76	1.392208743	
1.762	1.398654154	
1.764	2.027081712	
1.766	1.988409247	
1.768	1.437326619	
1.77	1.392208743	
1.772	1.89495079	
1.774	1.981963836	
1.776	1.488889906	
1.778	1.395431449	
1.78	1.801492332	
1.782	1.994854658	
1.784	1.682252232	
1.786	1.453440146	
1.788	1.762819867	
1.79	2.062531472	
1.792	1.717701991	
1.794	1.395431449	
1.796	1.650025177	
1.798	2.046417945	
1.8	1.814383154	
1.802	1.353536278	
1.804	1.546898604	
1.806	2.114094759	
1.808	1.956182193	
1.81	1.40187686	
1.812	1.469553674	
1.814	2.052863355	
1.816	2.114094759	
1.818	1.492112612	
1.82	1.392208743	
1.822	1.917509728	
1.824	2.036749828	
1.826	1.572680247	
1.828	1.40187686	
1.83	1.849832914	
1.832	2.091535821	
1.834	1.708033875	
1.836	1.553344015	
1.838	1.769265278	
1.84	2.052863355	
1.842	1.74670634	
1.844	1.382540627	
1.846	1.685474937	
1.848	2.101203937	
1.85	1.856278325	
1.852	1.398654154	
1.854	1.534007782	
1.856	2.16243534	
1.858	1.952959487	
1.86	1.405099565	
1.862	1.47922179	
1.864	1.994854658	
1.866	2.078644999	
1.868	1.524339666	
1.87	1.437326619	
1.872	1.923955138	
1.874	2.00774548	
1.876	1.662915999	
1.878	1.508226139	
1.88	1.872391852	
1.882	2.075422293	
1.884	1.666138705	
1.886	1.534007782	
1.888	1.853055619	
1.89	2.110872053	
1.892	1.749929046	
1.894	1.405099565	
1.896	1.785378805	
1.898	2.265561913	
1.9	1.985186542	
1.902	1.446994736	
1.904	1.598461891	
1.906	2.246225681	
1.908	2.104426642	
1.91	1.488889906	
1.912	1.498558022	
1.914	2.081867704	
1.916	2.152767224	
1.918	1.66936141	
1.92	1.550121309	
1.922	2.017413596	
1.924	2.091535821	
1.926	1.650025177	
1.928	1.582348363	
1.93	1.956182193	
1.932	2.149544518	
1.934	1.71125658	
1.936	1.47922179	
1.938	1.865946441	
1.94	2.181771572	
1.942	1.833719387	
1.944	1.40187686	
1.946	1.682252232	
1.948	2.262339208	
1.95	1.978741131	
1.952	1.463108263	
1.954	1.611352712	
1.956	2.143099107	
1.958	2.062531472	
1.96	1.55656672	
1.962	1.553344015	
1.964	2.052863355	
1.966	2.059308766	
1.968	1.505003433	
1.97	1.534007782	
1.972	1.991631952	
1.974	2.097981231	
1.976	1.630688945	
1.978	1.440549325	
1.98	1.946514076	
1.982	2.175326162	
1.984	1.727370108	
1.986	1.424435798	
1.988	1.70481117	
1.99	2.143099107	
1.992	1.811160449	
1.994	1.395431449	
1.996	1.601684596	
1.998	2.146321813	
2	1.914287022	
2.002	1.388986038	
2.004	1.534007782	
2.006	2.017413596	
2.008	1.952959487	
2.01	1.505003433	
2.012	1.495335317	
2.014	2.01419089	
2.016	2.01419089	
2.018	1.611352712	
2.02	1.595239185	
2.022	2.036749828	
2.024	2.094758526	
2.026	1.572680247	
2.028	1.353536278	
2.03	1.82405127	
2.032	2.16243534	
2.034	1.727370108	
2.036	1.40187686	
2.038	1.769265278	
2.04	2.175326162	
2.042	1.817605859	
2.044	1.414767681	
2.046	1.666138705	
2.048	2.133430991	
2.05	1.93684596	
2.052	1.485667201	
2.054	1.608130007	
2.056	2.08509041	
2.058	1.949736782	
2.06	1.463108263	
2.062	1.472776379	
2.064	2.004522774	
2.066	2.030304417	
2.068	1.459885557	
2.07	1.430881209	
2.072	1.952959487	
2.074	2.091535821	
2.076	1.575902953	
2.078	1.3664271	
2.08	1.814383154	
2.082	2.08509041	
2.084	1.650025177	
2.086	1.353536278	
2.088	1.682252232	
2.09	2.04964065	
2.092	1.756374456	
2.094	1.359981689	
2.096	1.611352712	
2.098	2.075422293	
2.1	1.888505379	
2.102	1.450217441	
2.104	1.546898604	
2.106	2.039972534	
2.108	1.946514076	
2.11	1.47922179	
2.112	1.492112612	
2.114	1.959404898	
2.116	2.020636301	
2.118	1.546898604	
2.12	1.498558022	
2.122	1.956182193	
2.124	1.998077363	
2.126	1.501780728	
2.128	1.337422751	
2.13	1.827273976	
2.132	2.146321813	
2.134	1.653247883	
2.136	1.311641108	
2.138	1.66936141	
2.14	2.143099107	
2.142	1.775710689	
2.144	1.318086519	
2.146	1.55656672	
2.148	2.00774548	
2.15	1.804715038	
2.152	1.347090867	
2.154	1.450217441	
2.156	1.969073014	
2.158	1.914287022	
2.16	1.417990387	
2.162	1.430881209	
2.164	1.927177844	
2.166	1.959404898	
2.168	1.453440146	
2.17	1.417990387	
2.172	1.933623255	
2.174	2.056086061	
2.176	1.546898604	
2.178	1.372872511	
2.18	1.817605859	
2.182	2.120540169	
2.184	1.637134356	
2.186	1.337422751	
2.188	1.675806821	
2.19	2.059308766	
2.192	1.804715038	
2.194	1.337422751	
2.196	1.508226139	
2.198	2.010968185	
2.2	1.830496681	
2.202	1.459885557	
2.204	1.572680247	
2.206	2.081867704	
2.208	1.969073014	
2.21	1.437326619	
2.212	1.505003433	
2.214	1.998077363	
2.216	1.991631952	
2.218	1.482444495	
2.22	1.388986038	
2.222	2.01419089	
2.224	2.133430991	
2.226	1.624243534	
2.228	1.430881209	
2.23	1.840164797	
2.232	2.213998627	
2.234	1.74670634	
2.236	1.392208743	
2.238	1.730592813	
2.24	2.056086061	
2.242	1.740260929	
2.244	1.318086519	
2.246	1.611352712	
2.248	2.101203937	
2.25	1.917509728	
2.252	1.472776379	
2.254	1.55656672	
2.256	2.159212634	
2.258	2.08509041	
2.26	1.527562371	
2.262	1.617798123	
2.264	2.059308766	
2.266	2.043195239	
2.268	1.550121309	
2.27	1.453440146	
2.272	2.078644999	
2.274	2.136653696	
2.276	1.643579767	
2.278	1.550121309	
2.28	1.89495079	
2.282	2.230112154	
2.284	1.730592813	
2.286	1.417990387	
2.288	1.759597162	
2.29	2.081867704	
2.292	1.798269627	
2.294	1.353536278	
2.296	1.598461891	
2.298	2.133430991	
2.3	1.875614557	
2.302	1.511448844	
2.304	1.604907301	
2.306	2.046417945	
2.308	1.891728084	
2.31	1.353536278	
2.312	1.450217441	
2.314	1.969073014	
2.316	1.930400549	
2.318	1.424435798	
2.32	1.3664271	
2.322	1.933623255	
2.324	2.046417945	
2.326	1.434103914	
2.328	1.266523232	
2.33	1.804715038	
2.332	1.97229572	
2.334	1.508226139	
2.336	1.266523232	
2.338	1.727370108	
2.34	2.020636301	
2.342	1.621020829	
2.344	1.434103914	
2.346	1.695143053	
2.348	2.059308766	
2.35	1.727370108	
2.352	1.308418402	
2.354	1.595239185	
2.356	2.065754177	
2.358	1.833719387	
2.36	1.292304875	
2.362	1.517894255	
2.364	2.175326162	
2.366	1.994854658	
2.368	1.385763333	
2.37	1.427658503	
2.372	2.01419089	
2.374	2.072199588	
2.376	1.534007782	
2.378	1.446994736	
2.38	1.927177844	
2.382	2.020636301	
2.384	1.627466239	
2.386	1.40187686	
2.388	1.827273976	
2.39	2.039972534	
2.392	1.601684596	
2.394	1.498558022	
2.396	1.811160449	
2.398	2.091535821	
2.4	1.672584115	
2.402	1.32453193	
2.404	1.71125658	
2.406	2.088313115	
2.408	1.820828565	
2.41	1.40187686	
2.412	1.608130007	
2.414	2.217221332	
2.416	1.975518425	
2.418	1.427658503	
2.42	1.463108263	
2.422	2.001300069	
2.424	1.952959487	
2.426	1.405099565	
2.428	1.469553674	
2.43	1.975518425	
2.432	2.010968185	
2.434	1.550121309	
2.436	1.488889906	
2.438	1.969073014	
2.44	1.994854658	
2.442	1.508226139	
2.444	1.453440146	
2.446	1.917509728	
2.448	2.107649348	
2.45	1.672584115	
2.452	1.40187686	
2.454	1.865946441	
2.456	2.201107805	
2.458	1.74670634	
2.46	1.466330968	
2.462	1.766042573	
2.464	2.175326162	
2.466	1.853055619	
2.468	1.385763333	
2.47	1.614575418	
2.472	2.075422293	
2.474	1.920732433	
2.476	1.453440146	
2.478	1.575902953	
2.48	2.130208286	
2.482	2.020636301	
2.484	1.546898604	
2.486	1.601684596	
2.488	2.088313115	
2.49	2.020636301	
2.492	1.463108263	
2.494	1.466330968	
2.496	2.010968185	
2.498	2.046417945	
2.5	1.566234836	
2.502	1.47922179	
2.504	1.930400549	
2.506	2.143099107	
2.508	1.595239185	
2.51	1.376095216	
2.512	1.791824216	
2.514	2.020636301	
2.516	1.640357061	
2.518	1.395431449	
2.52	1.820828565	
2.522	2.075422293	
2.524	1.698365759	
2.526	1.376095216	
2.528	1.695143053	
2.53	2.097981231	
2.532	1.788601511	
2.534	1.3664271	
2.536	1.543675898	
2.538	2.00774548	
2.54	1.891728084	
2.542	1.440549325	
2.544	1.508226139	
2.546	2.039972534	
2.548	1.959404898	
2.55	1.475999084	
2.552	1.537230488	
2.554	2.046417945	
2.556	2.033527123	
2.558	1.501780728	
2.56	1.463108263	
2.562	1.952959487	
2.564	2.010968185	
2.566	1.501780728	
2.568	1.392208743	
2.57	1.849832914	
2.572	2.110872053	
2.574	1.653247883	
2.576	1.446994736	
2.578	1.775710689	
2.58	2.075422293	
2.582	1.688697642	
2.584	1.337422751	
2.586	1.666138705	
2.588	2.043195239	
2.59	1.807937743	
2.592	1.434103914	
2.594	1.608130007	
2.596	2.065754177	
2.598	1.885282673	
2.6	1.395431449	
2.602	1.51467155	
2.604	2.030304417	
2.606	1.920732433	
2.608	1.379317922	
2.61	1.408322271	
2.612	1.994854658	
2.614	2.039972534	
2.616	1.534007782	
2.618	1.398654154	
2.62	1.862723735	
2.622	1.991631952	
2.624	1.543675898	
2.626	1.430881209	
2.628	1.775710689	
2.63	2.020636301	
2.632	1.698365759	
2.634	1.395431449	
2.636	1.70481117	
2.638	2.04964065	
2.64	1.74670634	
2.642	1.424435798	
2.644	1.637134356	
2.646	2.08509041	
2.648	1.801492332	
2.65	1.359981689	
2.652	1.566234836	
2.654	2.020636301	
2.656	1.830496681	
2.658	1.353536278	
2.66	1.495335317	
2.662	2.023859007	
2.664	1.940068666	
2.666	1.427658503	
2.668	1.411544976	
2.67	1.943291371	
2.672	1.97229572	
2.674	1.47922179	
2.676	1.408322271	
2.678	1.85950103	
2.68	1.991631952	
2.682	1.559789425	
2.684	1.501780728	
2.686	1.891728084	
2.688	2.033527123	
2.69	1.608130007	
2.692	1.398654154	
2.694	1.82405127	
2.696	2.062531472	
2.698	1.714479286	
2.7	1.434103914	
2.702	1.720924697	
2.704	2.1978851	
2.706	1.89495079	
2.708	1.437326619	
2.71	1.534007782	
2.712	2.004522774	
2.714	1.914287022	
2.716	1.437326619	
2.718	1.537230488	
2.72	1.991631952	
2.722	1.962627604	
2.724	1.563012131	
2.726	1.566234836	
2.728	2.010968185	
2.73	1.994854658	
2.732	1.524339666	
2.734	1.44377203	
2.736	1.872391852	
2.738	2.08509041	
2.74	1.63391165	
2.742	1.450217441	
2.744	1.907841611	
2.746	2.233334859	
2.748	1.788601511	
2.75	1.440549325	
2.752	1.727370108	
2.754	2.16243534	
2.756	1.878837263	
2.758	1.466330968	
2.76	1.688697642	
2.762	2.123762875	
2.764	1.93684596	
2.766	1.595239185	
2.768	1.656470588	
2.77	2.117317464	
2.772	2.062531472	
2.774	1.588793774	
2.776	1.617798123	
2.778	2.072199588	
2.78	2.062531472	
2.782	1.575902953	
2.784	1.505003433	
2.786	2.149544518	
2.788	2.233334859	
2.79	1.688697642	
2.792	1.51467155	
2.794	1.940068666	
2.796	2.249448386	
2.798	1.7821561	
2.8	1.51467155	
2.802	1.849832914	
2.804	2.175326162	
2.806	1.962627604	
2.808	1.608130007	
2.81	1.820828565	
2.812	2.201107805	
2.814	1.962627604	
2.816	1.672584115	
2.818	1.769265278	
2.82	2.191439689	
2.822	2.046417945	
2.824	1.540453193	
2.826	1.650025177	
2.828	2.152767224	
2.83	2.143099107	
2.832	1.659693294	
2.834	1.588793774	
2.836	2.207553216	
2.838	2.281675441	
2.84	1.740260929	
2.842	1.575902953	
2.844	1.956182193	
2.846	2.213998627	
2.848	1.791824216	
2.85	1.569457542	
2.852	1.882059968	
2.854	2.149544518	
2.856	1.940068666	
2.858	1.659693294	
2.86	1.827273976	
2.862	2.210775921	
2.864	1.969073014	
2.866	1.608130007	
2.868	1.788601511	
2.87	2.175326162	
2.872	2.030304417	
2.874	1.553344015	
2.876	1.646802472	
2.878	2.220444038	
2.88	2.168880751	
2.882	1.679029526	
2.884	1.614575418	
2.886	2.107649348	
2.888	2.284898146	
2.89	1.74670634	
2.892	1.572680247	
2.894	1.97229572	
2.896	2.181771572	
2.898	1.798269627	
2.9	1.534007782	
2.902	1.865946441	
2.904	2.213998627	
2.906	1.885282673	
2.908	1.720924697	
2.91	1.885282673	
2.912	2.226889448	
2.914	1.940068666	
2.916	1.505003433	
2.918	1.63391165	
2.92	2.130208286	
2.922	2.046417945	
2.924	1.553344015	
2.926	1.614575418	
2.928	2.165658045	
2.93	2.139876402	
2.932	1.627466239	
2.934	1.508226139	
2.936	1.985186542	
2.938	2.188216983	
2.94	1.682252232	
2.942	1.553344015	
2.944	1.885282673	
2.946	2.075422293	
2.948	1.74670634	
2.95	1.572680247	
2.952	1.911064317	
2.954	2.20433051	
2.956	1.869169146	
2.958	1.585571069	
2.96	1.762819867	
2.962	2.149544518	
2.964	1.933623255	
2.966	1.495335317	
2.968	1.659693294	
2.97	2.149544518	
2.972	2.056086061	
2.974	1.624243534	
2.976	1.659693294	
2.978	2.159212634	
2.98	2.143099107	
2.982	1.614575418	
2.984	1.582348363	
2.986	2.072199588	
2.988	2.094758526	
2.99	1.624243534	
2.992	1.495335317	
2.994	1.946514076	
2.996	2.23978027	
2.998	1.846610208	
3	1.604907301	
3.002	1.891728084	
3.004	2.149544518	
3.006	1.853055619	
3.008	1.546898604	
3.01	1.82405127	
3.012	2.172103456	
3.014	1.956182193	
3.016	1.550121309	
3.018	1.730592813	
3.02	2.323570611	
3.022	2.188216983	
3.024	1.627466239	
3.026	1.650025177	
3.028	2.117317464	
3.03	2.036749828	
3.032	1.524339666	
3.034	1.534007782	
3.036	1.994854658	
3.038	2.059308766	
3.04	1.666138705	
3.042	1.569457542	
3.044	1.985186542	
3.046	2.107649348	
3.048	1.682252232	
3.05	1.524339666	
3.052	1.898173495	
3.054	2.143099107	
3.056	1.785378805	
3.058	1.508226139	
3.06	1.778933394	
3.062	2.114094759	
3.064	1.7821561	
3.066	1.52111696	
3.068	1.762819867	
3.07	2.23978027	
3.072	1.998077363	
3.074	1.611352712	
3.076	1.749929046	
3.078	2.178548867	
3.08	2.091535821	
3.082	1.55656672	
3.084	1.617798123	
3.086	2.08509041	
3.088	2.068976883	
3.09	1.66936141	
3.092	1.598461891	
3.094	2.091535821	
3.096	2.149544518	
3.098	1.624243534	
3.1	1.550121309	
3.102	1.962627604	
3.104	2.101203937	
3.106	1.772487984	
3.108	1.614575418	
3.11	1.904618906	
3.112	2.101203937	
3.114	1.769265278	
3.116	1.459885557	
3.118	1.717701991	
3.12	2.08509041	
3.122	1.849832914	
3.124	1.456662852	
3.126	1.717701991	
3.128	2.223666743	
3.13	1.994854658	
3.132	1.456662852	
3.134	1.550121309	
3.136	1.975518425	
3.138	1.923955138	
3.14	1.437326619	
3.142	1.450217441	
3.144	2.036749828	
3.146	2.08509041	
3.148	1.604907301	
3.15	1.469553674	
3.152	1.853055619	
3.154	2.039972534	
3.156	1.611352712	
3.158	1.543675898	
3.16	1.801492332	
3.162	2.072199588	
3.164	1.672584115	
3.166	1.398654154	
3.168	1.788601511	
3.17	2.12698558	
3.172	1.7821561	
3.174	1.356758984	
3.176	1.559789425	
3.178	2.010968185	
3.18	1.862723735	
3.182	1.314863813	
3.184	1.392208743	
3.186	1.956182193	
3.188	1.89495079	
3.19	1.40187686	
3.192	1.395431449	
3.194	1.891728084	
3.196	1.962627604	
3.198	1.575902953	
3.2	1.446994736	
3.202	1.865946441	
3.204	1.930400549	
3.206	1.488889906	
3.208	1.424435798	
3.21	1.833719387	
3.212	1.998077363	
3.214	1.588793774	
3.216	1.295527581	
3.218	1.624243534	
3.22	1.943291371	
3.222	1.695143053	
3.224	1.421213092	
3.226	1.624243534	
3.228	1.998077363	
3.23	1.766042573	
3.232	1.421213092	
3.234	1.527562371	
3.236	1.891728084	
3.238	1.795046921	
3.24	1.369649805	
3.242	1.459885557	
3.244	1.914287022	
3.246	1.849832914	
3.248	1.398654154	
3.25	1.405099565	
3.252	1.875614557	
3.254	1.93684596	
3.256	1.369649805	
3.258	1.305195697	
3.26	1.749929046	
3.262	1.856278325	
3.264	1.427658503	
3.266	1.282636759	
3.268	1.63391165	
3.27	1.907841611	
3.272	1.569457542	
3.274	1.292304875	
3.276	1.608130007	
3.278	1.901396201	
3.28	1.662915999	
3.282	1.279414054	
3.284	1.47922179	
3.286	1.875614557	
3.288	1.74670634	
3.29	1.311641108	
3.292	1.430881209	
3.294	1.904618906	
3.296	1.917509728	
3.298	1.430881209	
3.3	1.421213092	
3.302	1.949736782	
3.304	1.978741131	
3.306	1.430881209	
3.308	1.350313573	
3.31	1.798269627	
3.312	1.97229572	
3.314	1.59201648	
3.316	1.453440146	
3.318	1.801492332	
3.32	2.08509041	
3.322	1.662915999	
3.324	1.33097734	
3.326	1.627466239	
3.328	2.136653696	
3.33	1.840164797	
3.332	1.395431449	
3.334	1.611352712	
3.336	2.059308766	
3.338	1.853055619	
3.34	1.376095216	
3.342	1.563012131	
3.344	2.033527123	
3.346	1.891728084	
3.348	1.3664271	
3.35	1.363204395	
3.352	1.956182193	
3.354	2.001300069	
3.356	1.488889906	
3.358	1.385763333	
3.36	1.830496681	
3.362	1.920732433	
3.364	1.524339666	
3.366	1.456662852	
3.368	1.811160449	
3.37	2.033527123	
3.372	1.611352712	
3.374	1.334200046	
3.376	1.640357061	
3.378	2.004522774	
3.38	1.730592813	
3.382	1.379317922	
3.384	1.537230488	
3.386	1.949736782	
3.388	1.814383154	
3.39	1.408322271	
3.392	1.508226139	
3.394	1.946514076	
3.396	1.885282673	
3.398	1.372872511	
3.4	1.385763333	
3.402	1.920732433	
3.404	1.959404898	
3.406	1.446994736	
3.408	1.405099565	
3.41	1.846610208	
3.412	2.017413596	
3.414	1.51467155	
3.416	1.337422751	
3.418	1.772487984	
3.42	2.101203937	
3.422	1.724147402	
3.424	1.356758984	
3.426	1.637134356	
3.428	1.998077363	
3.43	1.74670634	
3.432	1.430881209	
3.434	1.685474937	
3.436	2.088313115	
3.438	1.856278325	
3.44	1.517894255	
3.442	1.621020829	
3.444	2.036749828	
3.446	1.969073014	
3.448	1.579125658	
3.45	1.540453193	
3.452	2.020636301	
3.454	1.981963836	
3.456	1.488889906	
3.458	1.427658503	
3.46	1.969073014	
3.462	2.165658045	
3.464	1.614575418	
3.466	1.511448844	
3.468	1.85950103	
3.47	2.033527123	
3.472	1.662915999	
3.474	1.575902953	
3.476	1.869169146	
3.478	2.081867704	
3.48	1.730592813	
3.482	1.385763333	
3.484	1.679029526	
3.486	2.16243534	
3.488	1.885282673	
3.49	1.437326619	
3.492	1.682252232	
3.494	2.184994278	
3.496	1.923955138	
3.498	1.450217441	
3.5	1.550121309	
3.502	2.101203937	
3.504	2.010968185	
3.506	1.566234836	
3.508	1.566234836	
3.51	2.033527123	
3.512	2.036749828	
3.514	1.685474937	
3.516	1.627466239	
3.518	2.030304417	
3.52	2.123762875	
3.522	1.572680247	
3.524	1.434103914	
3.526	1.952959487	
3.528	2.226889448	
3.53	1.695143053	
3.532	1.498558022	
3.534	1.962627604	
3.536	2.094758526	
3.538	1.701588464	
3.54	1.534007782	
3.542	1.849832914	
3.544	2.117317464	
3.546	1.849832914	
3.548	1.588793774	
3.55	1.74670634	
3.552	2.143099107	
3.554	1.927177844	
3.556	1.47922179	
3.558	1.63391165	
3.56	2.201107805	
3.562	2.039972534	
3.564	1.495335317	
3.566	1.588793774	
3.568	2.304234379	
3.57	2.12698558	
3.572	1.537230488	
3.574	1.579125658	
3.576	2.062531472	
3.578	2.059308766	
3.58	1.614575418	
3.582	1.621020829	
3.584	1.994854658	
3.586	2.078644999	
3.588	1.807937743	
3.59	1.559789425	
3.592	1.907841611	
3.594	2.097981231	
3.596	1.679029526	
3.598	1.427658503	
3.6	1.85950103	
3.602	2.297788968	
3.604	1.820828565	
3.606	1.453440146	
3.608	1.843387503	
3.61	2.188216983	
3.612	1.878837263	
3.614	1.582348363	
3.616	1.717701991	
3.618	2.072199588	
3.62	1.885282673	
3.622	1.601684596	
3.624	1.662915999	
3.626	2.088313115	
3.628	1.981963836	
3.63	1.485667201	
3.632	1.527562371	
3.634	2.081867704	
3.636	2.078644999	
3.638	1.47922179	
3.64	1.44377203	
3.642	2.143099107	
3.644	2.133430991	
3.646	1.569457542	
3.648	1.495335317	
3.65	1.988409247	
3.652	2.091535821	
3.654	1.630688945	
3.656	1.585571069	
3.658	1.885282673	
3.66	2.078644999	
3.662	1.795046921	
3.664	1.456662852	
3.666	1.7821561	
3.668	2.097981231	
3.67	1.749929046	
3.672	1.376095216	
3.674	1.637134356	
3.676	2.262339208	
3.678	1.969073014	
3.68	1.440549325	
3.682	1.788601511	
3.684	2.12698558	
3.686	1.66936141	
3.688	1.511448844	
3.69	1.940068666	
3.692	2.046417945	
3.694	1.650025177	
3.696	1.601684596	
3.698	1.946514076	
3.7	2.062531472	
3.702	1.730592813	
3.704	1.466330968	
3.706	1.814383154	
3.708	2.20433051	
3.71	1.749929046	
3.712	1.382540627	
3.714	1.791824216	
3.716	2.243002976	
3.718	1.827273976	
3.72	1.414767681	
3.722	1.74670634	
3.724	2.120540169	
3.726	1.865946441	
3.728	1.617798123	
3.73	1.682252232	
3.732	2.097981231	
3.734	2.010968185	
3.736	1.537230488	
3.738	1.52111696	
3.74	1.988409247	
3.742	2.010968185	
3.744	1.427658503	
3.746	1.427658503	
3.748	2.123762875	
3.75	2.184994278	
3.752	1.579125658	
3.754	1.411544976	
3.756	1.93684596	
3.758	2.088313115	
3.76	1.608130007	
3.762	1.517894255	
3.764	1.82405127	
3.766	2.059308766	
3.768	1.737038224	
3.77	1.427658503	
3.772	1.679029526	
3.774	2.062531472	
3.776	1.827273976	
3.778	1.343868162	
3.78	1.534007782	
3.782	2.136653696	
3.784	1.956182193	
3.786	1.40187686	
3.788	1.492112612	
3.79	2.104426642	
3.792	2.010968185	
3.794	1.430881209	
3.796	1.408322271	
3.798	1.904618906	
3.8	1.975518425	
3.802	1.492112612	
3.804	1.459885557	
3.806	1.882059968	
3.808	1.994854658	
3.81	1.59201648	
3.812	1.359981689	
3.814	1.724147402	
3.816	2.056086061	
3.818	1.688697642	
3.82	1.321309224	
3.822	1.601684596	
3.824	2.094758526	
3.826	1.82405127	
3.828	1.337422751	
3.83	1.508226139	
3.832	1.956182193	
3.834	1.82405127	
3.836	1.398654154	
3.838	1.469553674	
3.84	1.97229572	
3.842	1.943291371	
3.844	1.546898604	
3.846	1.488889906	
3.848	1.952959487	
3.85	2.010968185	
3.852	1.424435798	
3.854	1.350313573	
3.856	1.843387503	
3.858	2.133430991	
3.86	1.621020829	
3.862	1.363204395	
3.864	1.830496681	
3.866	2.114094759	
3.868	1.698365759	
3.87	1.321309224	
3.872	1.646802472	
3.874	2.043195239	
3.876	1.762819867	
3.878	1.395431449	
3.88	1.572680247	
3.882	2.036749828	
3.884	1.93684596	
3.886	1.434103914	
3.888	1.51467155	
3.89	2.017413596	
3.892	1.998077363	
3.894	1.417990387	
3.896	1.430881209	
3.898	2.088313115	
3.9	2.046417945	
3.902	1.446994736	
3.904	1.363204395	
3.906	1.907841611	
3.908	2.017413596	
3.91	1.511448844	
3.912	1.456662852	
3.914	1.846610208	
3.916	2.017413596	
3.918	1.627466239	
3.92	1.369649805	
3.922	1.71125658	
3.924	2.036749828	
3.926	1.756374456	
3.928	1.334200046	
3.93	1.588793774	
3.932	2.107649348	
3.934	1.814383154	
3.936	1.327754635	
3.938	1.59201648	
3.94	2.075422293	
3.942	1.923955138	
3.944	1.437326619	
3.946	1.463108263	
3.948	1.965850309	
3.95	1.920732433	
3.952	1.47922179	
3.954	1.505003433	
3.956	2.010968185	
3.958	2.062531472	
3.96	1.51467155	
3.962	1.382540627	
3.964	1.885282673	
3.966	2.04964065	
3.968	1.572680247	
3.97	1.353536278	
3.972	1.791824216	
3.974	2.075422293	
3.976	1.695143053	
3.978	1.376095216	
3.98	1.659693294	
3.982	2.059308766	
3.984	1.785378805	
3.986	1.388986038	
3.988	1.598461891	
3.99	2.114094759	
3.992	1.978741131	
3.994	1.434103914	
3.996	1.527562371	
3.998	2.175326162	
4	2.091535821	
4.002	1.508226139	
4.004	1.459885557	
4.006	1.998077363	
4.008	2.052863355	
4.01	1.601684596	
4.012	1.601684596	
4.014	2.020636301	
4.016	2.117317464	
4.018	1.714479286	
4.02	1.47922179	
4.022	1.85950103	
4.024	2.168880751	
4.026	1.772487984	
4.028	1.392208743	
4.03	1.743483635	
4.032	2.220444038	
4.034	1.907841611	
4.036	1.417990387	
4.038	1.656470588	
4.04	2.120540169	
4.042	1.956182193	
4.044	1.566234836	
4.046	1.640357061	
4.048	2.088313115	
4.05	1.978741131	
4.052	1.534007782	
4.054	1.546898604	
4.056	2.059308766	
4.058	2.149544518	
4.06	1.588793774	
4.062	1.44377203	
4.064	1.985186542	
4.066	2.188216983	
4.068	1.672584115	
4.07	1.469553674	
4.072	1.943291371	
4.074	2.188216983	
4.076	1.814383154	
4.078	1.501780728	
4.08	1.753151751	
4.082	2.110872053	
4.084	1.872391852	
4.086	1.546898604	
4.088	1.724147402	
4.09	2.20433051	
4.092	1.962627604	
4.094	1.417990387	
4.096	1.540453193	
4.098	2.12698558	
4.1	2.091535821	
4.102	1.52111696	
4.104	1.498558022	
4.106	2.056086061	
4.108	2.107649348	
4.11	1.598461891	
4.112	1.52111696	
4.114	1.965850309	
4.116	2.097981231	
4.118	1.621020829	
4.12	1.52111696	
4.122	1.911064317	
4.124	2.104426642	
4.126	1.7821561	
4.128	1.47922179	
4.13	1.772487984	
4.132	2.114094759	
4.134	1.853055619	
4.136	1.446994736	
4.138	1.604907301	
4.14	2.146321813	
4.142	1.998077363	
4.144	1.51467155	
4.146	1.640357061	
4.148	2.139876402	
4.15	2.059308766	
4.152	1.579125658	
4.154	1.627466239	
4.156	2.072199588	
4.158	2.046417945	
4.16	1.682252232	
4.162	1.601684596	
4.164	2.017413596	
4.166	2.175326162	
4.168	1.688697642	
4.17	1.495335317	
4.172	1.914287022	
4.174	2.255893797	
4.176	1.853055619	
4.178	1.52111696	
4.18	1.878837263	
4.182	2.220444038	
4.184	1.946514076	
4.186	1.598461891	
4.188	1.762819867	
4.19	2.1978851	
4.192	2.059308766	
4.194	1.653247883	
4.196	1.762819867	
4.198	2.236557565	
4.2	2.165658045	
4.202	1.646802472	
4.204	1.698365759	
4.206	2.23978027	
4.208	2.246225681	
4.21	1.753151751	
4.212	1.675806821	
4.214	2.159212634	
4.216	2.3171252	
4.218	1.885282673	
4.22	1.817605859	
4.222	2.20433051	
4.224	2.452478828	
4.226	2.149544518	
4.228	1.878837263	
4.23	2.191439689	
4.232	2.50726482	
4.234	2.217221332	
4.236	1.882059968	
4.238	2.114094759	
4.24	2.574941634	
4.242	2.336461433	
4.244	1.843387503	
4.246	1.981963836	
4.248	2.475037766	
4.25	2.349352255	
4.252	1.85950103	
4.254	1.952959487	
4.256	2.407360952	
4.258	2.397692836	
4.26	1.969073014	
4.262	1.891728084	
4.264	2.307457084	
4.266	2.375133898	
4.268	1.911064317	
4.27	1.749929046	
4.272	2.184994278	
4.274	2.468592355	
4.276	1.991631952	
4.278	1.70481117	
4.28	2.130208286	
4.282	2.449256123	
4.284	2.120540169	
4.286	1.701588464	
4.288	1.943291371	
4.29	2.397692836	
4.292	2.194662394	
4.294	1.853055619	
4.296	1.97229572	
4.298	2.397692836	
4.3	2.265561913	
4.302	1.807937743	
4.304	1.817605859	
4.306	2.297788968	
4.308	2.268784619	
4.31	1.7821561	
4.312	1.762819867	
4.314	2.23978027	
4.316	2.313902495	
4.318	1.830496681	
4.32	1.675806821	
4.322	2.088313115	
4.324	2.320347906	
4.326	1.891728084	
4.328	1.653247883	
4.33	1.998077363	
4.332	2.313902495	
4.334	1.969073014	
4.336	1.601684596	
4.338	1.817605859	
4.34	2.210775921	
4.342	1.962627604	
4.344	1.604907301	
4.346	1.756374456	
4.348	2.246225681	
4.35	2.062531472	
4.352	1.495335317	
4.354	1.582348363	
4.356	2.033527123	
4.358	1.975518425	
4.36	1.505003433	
4.362	1.505003433	
4.364	2.033527123	
4.366	2.120540169	
4.368	1.624243534	
4.37	1.492112612	
4.372	1.927177844	
4.374	2.133430991	
4.376	1.675806821	
4.378	1.437326619	
4.38	1.827273976	
4.382	2.097981231	
4.384	1.730592813	
4.386	1.585571069	
4.388	1.814383154	
4.39	2.107649348	
4.392	1.946514076	
4.394	1.563012131	
4.396	1.679029526	
4.398	2.056086061	
4.4	1.907841611	
4.402	1.44377203	
4.404	1.540453193	
4.406	2.210775921	
4.408	2.12698558	
4.41	1.492112612	
4.412	1.498558022	
4.414	2.08509041	
4.416	2.039972534	
4.418	1.498558022	
4.42	1.524339666	
4.422	1.930400549	
4.424	2.004522774	
4.426	1.624243534	
4.428	1.540453193	
4.43	1.865946441	
4.432	2.023859007	
4.434	1.740260929	
4.436	1.427658503	
4.438	1.70481117	
4.44	2.120540169	
4.442	1.82405127	
4.444	1.398654154	
4.446	1.662915999	
4.448	2.252671092	
4.45	1.956182193	
4.452	1.440549325	
4.454	1.643579767	
4.456	2.08509041	
4.458	1.949736782	
4.46	1.611352712	
4.462	1.71125658	
4.464	2.091535821	
4.466	2.081867704	
4.468	1.769265278	
4.47	1.627466239	
4.472	2.04964065	
4.474	2.152767224	
4.476	1.70481117	
4.478	1.55656672	
4.48	2.039972534	
4.482	2.359020371	
4.484	1.836942092	
4.486	1.553344015	
4.488	2.088313115	
4.49	2.326793317	
4.492	1.898173495	
4.494	1.595239185	
4.496	1.911064317	
4.498	2.210775921	
4.5	1.943291371	
4.502	1.74670634	
4.504	1.875614557	
4.506	2.1978851	
4.508	2.062531472	
4.51	1.656470588	
4.512	1.730592813	
4.514	2.252671092	
4.516	2.178548867	
4.518	1.614575418	
4.52	1.63391165	
4.522	2.304234379	
4.524	2.291343557	
4.526	1.70481117	
4.528	1.653247883	
4.53	2.143099107	
4.532	2.194662394	
4.534	1.730592813	
4.536	1.733815518	
4.538	2.091535821	
4.54	2.23978027	
4.542	2.020636301	
4.544	1.762819867	
4.546	1.994854658	
4.548	2.217221332	
4.55	1.97229572	
4.552	1.621020829	
4.554	1.862723735	
4.556	2.310679789	
4.558	2.017413596	
4.56	1.621020829	
4.562	1.865946441	
4.564	2.323570611	
4.566	2.065754177	
4.568	1.598461891	
4.57	1.791824216	
4.572	2.20433051	
4.574	2.072199588	
4.576	1.749929046	
4.578	1.775710689	
4.58	2.20433051	
4.582	2.159212634	
4.584	1.621020829	
4.586	1.595239185	
4.588	2.081867704	
4.59	2.191439689	
4.592	1.675806821	
4.594	1.63391165	
4.596	2.168880751	
4.598	2.3171252	
4.6	1.814383154	
4.602	1.624243534	
4.604	2.178548867	
4.606	2.410583658	
4.608	2.036749828	
4.61	1.865946441	
4.612	2.304234379	
4.614	2.626504921	
4.616	2.371911192	
4.618	2.123762875	
4.62	2.446033417	
4.622	2.951998169	
4.624	2.716740673	
4.626	2.320347906	
4.628	2.571718929	
4.63	3.203369192	
4.632	3.07123827	
4.634	2.581387045	
4.636	2.668400092	
4.638	3.164696727	
4.64	3.116356146	
4.642	2.758635843	
4.644	2.790862898	
4.646	3.209814603	
4.648	3.219482719	
4.65	2.839203479	
4.652	2.739299611	
4.654	3.196923781	
4.656	3.219482719	
4.658	2.777972076	
4.66	2.668400092	
4.662	3.155028611	
4.664	3.219482719	
4.666	2.855317006	
4.668	2.678068208	
4.67	3.11313344	
4.672	3.219482719	
4.674	2.932661936	
4.676	2.671622797	
4.678	2.929439231	
4.68	3.219482719	
4.682	2.974557107	
4.684	2.716740673	
4.686	2.852094301	
4.688	3.206591897	
4.69	2.945552758	
4.692	2.587832456	
4.694	2.678068208	
4.696	3.087351797	
4.698	2.884321355	
4.7	2.410583658	
4.702	2.462146944	
4.704	3.013229572	
4.706	2.890766766	
4.708	2.346129549	
4.71	2.252671092	
4.712	2.839203479	
4.714	2.781194781	
4.716	2.220444038	
4.718	2.00774548	
4.72	2.423474479	
4.722	2.536269169	
4.724	2.101203937	
4.726	1.878837263	
4.728	2.243002976	
4.73	2.400915541	
4.732	2.078644999	
4.734	1.769265278	
4.736	2.059308766	
4.738	2.371911192	
4.74	2.033527123	
4.742	1.63391165	
4.744	1.817605859	
4.746	2.220444038	
4.748	2.036749828	
4.75	1.534007782	
4.752	1.582348363	
4.754	2.033527123	
4.756	2.004522774	
4.758	1.52111696	
4.76	1.566234836	
4.762	2.036749828	
4.764	2.004522774	
4.766	1.52111696	
4.768	1.44377203	
4.77	1.85950103	
4.772	2.101203937	
4.774	1.588793774	
4.776	1.343868162	
4.778	1.71125658	
4.78	2.00774548	
4.782	1.624243534	
4.784	1.314863813	
4.786	1.666138705	
4.788	1.969073014	
4.79	1.685474937	
4.792	1.318086519	
4.794	1.527562371	
4.796	1.917509728	
4.798	1.740260929	
4.8	1.340645457	
4.802	1.430881209	
4.804	1.878837263	
4.806	1.798269627	
4.808	1.263300526	
4.81	1.276191348	
4.812	1.856278325	
4.814	1.865946441	
4.816	1.343868162	
4.818	1.276191348	
4.82	1.82405127	
4.822	1.911064317	
4.824	1.44377203	
4.826	1.301972992	
4.828	1.621020829	
4.83	1.862723735	
4.832	1.498558022	
4.834	1.234296178	
4.836	1.517894255	
4.838	1.814383154	
4.84	1.588793774	
4.842	1.179510185	
4.844	1.392208743	
4.846	1.914287022	
4.848	1.730592813	
4.85	1.25363241	
4.852	1.321309224	
4.854	1.801492332	
4.856	1.730592813	
4.858	1.266523232	
4.86	1.221405356	
4.862	1.679029526	
4.864	1.766042573	
4.866	1.318086519	
4.868	1.21818265	
4.87	1.656470588	
4.872	1.811160449	
4.874	1.408322271	
4.876	1.182732891	
4.878	1.55656672	
4.88	1.914287022	
4.882	1.44377203	
4.884	1.131169604	
4.886	1.52111696	
4.888	1.891728084	
4.89	1.595239185	
4.892	1.17628748	
4.894	1.3664271	
4.896	1.778933394	
4.898	1.637134356	
4.9	1.266523232	
4.902	1.347090867	
4.904	1.788601511	
4.906	1.753151751	
4.908	1.28908217	
4.91	1.263300526	
4.912	1.737038224	
4.914	1.778933394	
4.916	1.202069123	
4.918	1.144060426	
4.92	1.575902953	
4.922	1.856278325	
4.924	1.392208743	
4.926	1.147283131	
4.928	1.575902953	
4.93	1.878837263	
4.932	1.508226139	
4.934	1.14083772	
4.936	1.318086519	
4.938	1.762819867	
4.94	1.546898604	
4.942	1.144060426	
4.944	1.327754635	
4.946	1.7821561	
4.948	1.624243534	
4.95	1.066715496	
4.952	1.21173724	
4.954	1.740260929	
4.956	1.70481117	
4.958	1.185955596	
4.96	1.169842069	
4.962	1.775710689	
4.964	1.849832914	
4.966	1.308418402	
4.968	1.144060426	
4.97	1.608130007	
4.972	1.827273976	
4.974	1.379317922	
4.976	1.276191348	
4.978	1.595239185	
4.98	1.865946441	
4.982	1.566234836	
4.984	1.185955596	
4.986	1.430881209	
4.988	1.856278325	
4.99	1.608130007	
4.992	1.185955596	
4.994	1.321309224	
4.996	1.923955138	
4.998	1.778933394	
5	1.231073472	
5.002	1.327754635	
5.004	1.82405127	
5.006	1.775710689	
5.008	1.195623713	
5.01	1.179510185	
5.012	1.814383154	
5.014	1.856278325	
5.016	1.3664271	
5.018	1.298750286	
5.02	1.695143053	
5.022	1.940068666	
5.024	1.466330968	
5.026	1.160173953	
5.028	1.553344015	
5.03	1.856278325	
5.032	1.566234836	
5.034	1.231073472	
5.036	1.511448844	
5.038	1.940068666	
5.04	1.637134356	
5.042	1.179510185	
5.044	1.359981689	
5.046	1.830496681	
5.048	1.630688945	
5.05	1.108610666	
5.052	1.198846418	
5.054	1.753151751	
5.056	1.759597162	
5.058	1.237518883	
5.06	1.208514534	
5.062	1.691920348	
5.064	1.772487984	
5.066	1.285859464	
5.068	1.173064775	
5.07	1.59201648	
5.072	1.743483635	
5.074	1.285859464	
5.076	1.09894255	
5.078	1.485667201	
5.08	1.862723735	
5.082	1.524339666	
5.084	1.214959945	
5.086	1.469553674	
5.088	1.865946441	
5.09	1.579125658	
5.092	1.144060426	
5.094	1.353536278	
5.096	1.830496681	
5.098	1.695143053	
5.1	1.153728542	
5.102	1.263300526	
5.104	1.882059968	
5.106	1.856278325	
5.108	1.282636759	
5.11	1.240741588	
5.112	1.814383154	
5.114	1.978741131	
5.116	1.475999084	
5.118	1.392208743	
5.12	1.89495079	
5.122	2.1978851	
5.124	1.898173495	
5.126	1.730592813	
5.128	2.184994278	
5.13	2.529823758	
5.132	2.23978027	
5.134	2.046417945	
5.136	2.336461433	
5.138	2.787640192	
5.14	2.591055161	
5.142	2.178548867	
5.144	2.362243076	
5.146	2.871430533	
5.148	2.81019913	
5.15	2.333238727	
5.152	2.407360952	
5.154	2.997116045	
5.156	2.968111696	
5.158	2.407360952	
5.16	2.320347906	
5.162	2.774749371	
5.164	2.874653239	
5.166	2.320347906	
5.168	2.101203937	
5.17	2.462146944	
5.172	2.639395743	
5.174	2.236557565	
5.176	1.965850309	
5.178	2.236557565	
5.18	2.462146944	
5.182	2.146321813	
5.184	1.840164797	
5.186	2.030304417	
5.188	2.378356603	
5.19	2.101203937	
5.192	1.595239185	
5.194	1.679029526	
5.196	2.230112154	
5.198	2.110872053	
5.2	1.550121309	
5.202	1.572680247	
5.204	2.068976883	
5.206	2.165658045	
5.208	1.579125658	
5.21	1.466330968	
5.212	1.949736782	
5.214	2.010968185	
5.216	1.604907301	
5.218	1.408322271	
5.22	1.778933394	
5.222	2.020636301	
5.224	1.59201648	
5.226	1.411544976	
5.228	1.70481117	
5.23	1.952959487	
5.232	1.621020829	
5.234	1.282636759	
5.236	1.537230488	
5.238	1.93684596	
5.24	1.695143053	
5.242	1.237518883	
5.244	1.347090867	
5.246	1.93684596	
5.248	1.798269627	
5.25	1.263300526	
5.252	1.301972992	
5.254	1.795046921	
5.256	1.830496681	
5.258	1.272968643	
5.26	1.169842069	
5.262	1.679029526	
5.264	1.788601511	
5.266	1.411544976	
5.268	1.260077821	
5.27	1.646802472	
5.272	1.849832914	
5.274	1.430881209	
5.276	1.314863813	
5.278	1.624243534	
5.28	1.840164797	
5.282	1.446994736	
5.284	1.127946899	
5.286	1.505003433	
5.288	1.878837263	
5.29	1.588793774	
5.292	1.095719844	
5.294	1.272968643	
5.296	1.907841611	
5.298	1.740260929	
5.3	1.179510185	
5.302	1.182732891	
5.304	1.695143053	
5.306	1.714479286	
5.308	1.21173724	
5.31	1.179510185	
5.312	1.640357061	
5.314	1.724147402	
5.316	1.285859464	
5.318	1.231073472	
5.32	1.675806821	
5.322	1.856278325	
5.324	1.385763333	
5.326	1.115056077	
5.328	1.472776379	
5.33	1.795046921	
5.332	1.482444495	
5.334	1.134392309	
5.336	1.440549325	
5.338	1.875614557	
5.34	1.621020829	
5.342	1.118278782	
5.344	1.311641108	
5.346	1.820828565	
5.348	1.70481117	
5.35	1.208514534	
5.352	1.28908217	
5.354	1.7821561	
5.356	1.762819867	
5.358	1.308418402	
5.36	1.295527581	
5.362	1.762819867	
5.364	1.843387503	
5.366	1.314863813	
5.368	1.198846418	
5.37	1.624243534	
5.372	1.814383154	
5.374	1.308418402	
5.376	1.079606317	
5.378	1.485667201	
5.38	1.885282673	
5.382	1.540453193	
5.384	1.121501488	
5.386	1.395431449	
5.388	1.849832914	
5.39	1.608130007	
5.392	1.182732891	
5.394	1.311641108	
5.396	1.788601511	
5.398	1.650025177	
5.4	1.208514534	
5.402	1.282636759	
5.404	1.762819867	
5.406	1.737038224	
5.408	1.192401007	
5.41	1.240741588	
5.412	1.71125658	
5.414	1.724147402	
5.416	1.208514534	
5.418	1.086051728	
5.42	1.617798123	
5.422	1.833719387	
5.424	1.379317922	
5.426	1.06349279	
5.428	1.414767681	
5.43	1.788601511	
5.432	1.469553674	
5.434	1.121501488	
5.436	1.359981689	
5.438	1.788601511	
5.44	1.508226139	
5.442	1.102165255	
5.444	1.25363241	
5.446	1.70481117	
5.448	1.59201648	
5.45	1.118278782	
5.452	1.221405356	
5.454	1.691920348	
5.456	1.63391165	
5.458	1.134392309	
5.46	1.040933852	
5.462	1.508226139	
5.464	1.672584115	
5.466	1.214959945	
5.468	1.076383612	
5.47	1.517894255	
5.472	1.71125658	
5.474	1.337422751	
5.476	1.037711147	
5.478	1.392208743	
5.48	1.682252232	
5.482	1.372872511	
5.484	1.073160906	
5.486	1.340645457	
5.488	1.74670634	
5.49	1.501780728	
5.492	1.108610666	
5.494	1.301972992	
5.496	1.749929046	
5.498	1.604907301	
5.5	1.089274434	
5.502	1.182732891	
5.504	1.695143053	
5.506	1.679029526	
5.508	1.144060426	
5.51	1.124724193	
5.512	1.66936141	
5.514	1.730592813	
5.516	1.266523232	
5.518	1.179510185	
5.52	1.608130007	
5.522	1.756374456	
5.524	1.308418402	
5.526	1.144060426	
5.528	1.511448844	
5.53	1.695143053	
5.532	1.353536278	
5.534	1.127946899	
5.536	1.472776379	
5.538	1.740260929	
5.54	1.456662852	
5.542	1.173064775	
5.544	1.437326619	
5.546	1.7821561	
5.548	1.488889906	
5.55	1.06349279	
5.552	1.195623713	
5.554	1.70481117	
5.556	1.624243534	
5.558	1.147283131	
5.56	1.260077821	
5.562	1.840164797	
5.564	1.7821561	
5.566	1.285859464	
5.568	1.32453193	
5.57	1.878837263	
5.572	1.959404898	
5.574	1.530785077	
5.576	1.598461891	
5.578	2.188216983	
5.58	2.381579309	
5.582	1.933623255	
5.584	1.907841611	
5.586	2.442810712	
5.588	2.684513619	
5.59	2.368688487	
5.592	2.191439689	
5.594	2.607168688	
5.596	2.951998169	
5.598	2.639395743	
5.6	2.310679789	
5.602	2.597500572	
5.604	3.022897688	
5.606	2.861762417	
5.608	2.446033417	
5.61	2.600723278	
5.612	3.013229572	
5.614	2.835980774	
5.616	2.371911192	
5.618	2.436365301	
5.62	2.848871595	
5.622	2.694181735	
5.624	2.184994278	
5.626	2.191439689	
5.628	2.600723278	
5.63	2.565273518	
5.632	2.08509041	
5.634	2.00774548	
5.636	2.400915541	
5.638	2.433142596	
5.64	1.907841611	
5.642	1.778933394	
5.644	2.152767224	
5.646	2.3171252	
5.648	1.930400549	
5.65	1.717701991	
5.652	1.978741131	
5.654	2.217221332	
5.656	1.856278325	
5.658	1.537230488	
5.66	1.762819867	
5.662	2.088313115	
5.664	1.888505379	
5.666	1.450217441	
5.668	1.627466239	
5.67	2.110872053	
5.672	1.927177844	
5.674	1.450217441	
5.676	1.52111696	
5.678	1.994854658	
5.68	1.856278325	
5.682	1.372872511	
5.684	1.385763333	
5.686	1.849832914	
5.688	1.927177844	
5.69	1.475999084	
5.692	1.385763333	
5.694	1.798269627	
5.696	1.836942092	
5.698	1.437326619	
5.7	1.260077821	
5.702	1.630688945	
5.704	1.843387503	
5.706	1.44377203	
5.708	1.256855116	
5.71	1.611352712	
5.712	1.856278325	
5.714	1.517894255	
5.716	1.198846418	
5.718	1.472776379	
5.72	1.898173495	
5.722	1.608130007	
5.724	1.21173724	
5.726	1.343868162	
5.728	1.762819867	
5.73	1.621020829	
5.732	1.195623713	
5.734	1.301972992	
5.736	1.724147402	
5.738	1.70481117	
5.74	1.276191348	
5.742	1.311641108	
5.744	1.717701991	
5.746	1.653247883	
5.748	1.185955596	
5.75	1.144060426	
5.752	1.582348363	
5.754	1.724147402	
5.756	1.314863813	
5.758	1.118278782	
5.76	1.47922179	
5.762	1.778933394	
5.764	1.417990387	
5.766	1.14083772	
5.768	1.363204395	
5.77	1.701588464	
5.772	1.453440146	
5.774	1.089274434	
5.776	1.285859464	
5.778	1.672584115	
5.78	1.566234836	
5.782	1.227850767	
5.784	1.272968643	
5.786	1.653247883	
5.788	1.563012131	
5.79	1.137615015	
5.792	1.108610666	
5.794	1.553344015	
5.796	1.624243534	
5.798	1.192401007	
5.8	1.131169604	
5.802	1.66936141	
5.804	1.766042573	
5.806	1.327754635	
5.808	1.134392309	
5.81	1.475999084	
5.812	1.695143053	
5.814	1.285859464	
5.816	1.057047379	
5.818	1.327754635	
5.82	1.66936141	
5.822	1.453440146	
5.824	1.111833371	
5.826	1.314863813	
5.828	1.708033875	
5.83	1.530785077	
5.832	1.118278782	
5.834	1.185955596	
5.836	1.627466239	
5.838	1.55656672	
5.84	1.066715496	
5.842	1.108610666	
5.844	1.630688945	
5.846	1.653247883	
5.848	1.160173953	
5.85	1.060270085	
5.852	1.517894255	
5.854	1.675806821	
5.856	1.227850767	
5.858	1.050601968	
5.86	1.417990387	
5.862	1.650025177	
5.864	1.25363241	
5.866	1.011929503	
5.868	1.311641108	
5.87	1.637134356	
5.872	1.414767681	
5.874	1.050601968	
5.876	1.234296178	
5.878	1.624243534	
5.88	1.488889906	
5.882	1.02804303	
5.884	1.131169604	
5.886	1.608130007	
5.888	1.563012131	
5.89	1.121501488	
5.892	1.153728542	
5.894	1.569457542	
5.896	1.566234836	
5.898	1.127946899	
5.9	1.034488441	
5.902	1.466330968	
5.904	1.59201648	
5.906	1.179510185	
5.908	1.040933852	
5.91	1.44377203	
5.912	1.666138705	
5.914	1.282636759	
5.916	1.011929503	
5.918	1.353536278	
5.92	1.66936141	
5.922	1.379317922	
5.924	1.040933852	
5.926	1.240741588	
5.928	1.650025177	
5.93	1.488889906	
5.932	1.053824674	
5.934	1.14083772	
5.936	1.604907301	
5.938	1.566234836	
5.94	1.076383612	
5.942	1.06349279	
5.944	1.582348363	
5.946	1.614575418	
5.948	1.144060426	
5.95	1.089274434	
5.952	1.52111696	
5.954	1.598461891	
5.956	1.17628748	
5.958	1.079606317	
5.96	1.446994736	
5.962	1.66936141	
5.964	1.311641108	
5.966	1.069938201	
5.968	1.379317922	
5.97	1.701588464	
5.972	1.434103914	
5.974	1.02804303	
5.976	1.214959945	
5.978	1.66936141	
5.98	1.534007782	
5.982	1.156951247	
5.984	1.285859464	
5.986	1.724147402	
5.988	1.675806821	
5.99	1.221405356	
5.992	1.224628061	
5.994	1.66936141	
5.996	1.675806821	
5.998	1.237518883	
6	1.224628061	
6.002	1.637134356	
6.004	1.730592813	
6.006	1.305195697	
6.008	1.124724193	
6.01	1.534007782	
6.012	1.753151751	
6.014	1.369649805	
6.016	1.086051728	
6.018	1.417990387	
6.02	1.795046921	
6.022	1.553344015	
6.024	1.144060426	
6.026	1.350313573	
6.028	1.778933394	
6.03	1.659693294	
6.032	1.198846418	
6.034	1.263300526	
6.036	1.685474937	
6.038	1.701588464	
6.04	1.256855116	
6.042	1.279414054	
6.044	1.695143053	
6.046	1.695143053	
6.048	1.295527581	
6.05	1.243964294	
6.052	1.675806821	
6.054	1.756374456	
6.056	1.292304875	
6.058	1.163396658	
6.06	1.585571069	
6.062	1.82405127	
6.064	1.44377203	
6.066	1.150505837	
6.068	1.488889906	
6.07	1.827273976	
6.072	1.601684596	
6.074	1.179510185	
6.076	1.311641108	
6.078	1.772487984	
6.08	1.650025177	
6.082	1.256855116	
6.084	1.356758984	
6.086	1.840164797	
6.088	1.817605859	
6.09	1.382540627	
6.092	1.3664271	
6.094	1.840164797	
6.096	1.833719387	
6.098	1.363204395	
6.1	1.224628061	
6.102	1.646802472	
6.104	1.82405127	
6.106	1.388986038	
6.108	1.227850767	
6.11	1.588793774	
6.112	1.791824216	
6.114	1.485667201	
6.116	1.231073472	
6.118	1.511448844	
6.12	1.830496681	
6.122	1.559789425	
6.124	1.214959945	
6.126	1.379317922	
6.128	1.862723735	
6.13	1.727370108	
6.132	1.237518883	
6.134	1.369649805	
6.136	1.843387503	
6.138	1.772487984	
6.14	1.298750286	
6.142	1.292304875	
6.144	1.769265278	
6.146	1.772487984	
6.148	1.32453193	
6.15	1.256855116	
6.152	1.653247883	
6.154	1.853055619	
6.156	1.475999084	
6.158	1.279414054	
6.16	1.653247883	
6.162	1.994854658	
6.164	1.653247883	
6.166	1.363204395	
6.168	1.601684596	
6.17	1.981963836	
6.172	1.672584115	
6.174	1.301972992	
6.176	1.530785077	
6.178	1.952959487	
6.18	1.766042573	
6.182	1.340645457	
6.184	1.530785077	
6.186	1.97229572	
6.188	1.733815518	
6.19	1.305195697	
6.192	1.385763333	
6.194	1.840164797	
6.196	1.766042573	
6.198	1.247186999	
6.2	1.424435798	
6.202	1.817605859	
6.204	1.630688945	
6.206	1.314863813	
6.208	1.575902953	
6.21	1.891728084	
6.212	1.456662852	
6.214	1.160173953	
6.216	1.537230488	
6.218	1.827273976	
6.22	1.327754635	
6.222	1.195623713	
6.224	1.737038224	
6.226	1.791824216	
6.228	1.285859464	
6.23	1.250409705	
6.232	1.727370108	
6.234	1.588793774	
6.236	1.150505837	
6.238	1.363204395	
6.24	1.801492332	
6.242	1.530785077	
6.244	1.153728542	
6.246	1.450217441	
6.248	1.830496681	
6.25	1.546898604	
6.252	1.127946899	
6.254	1.295527581	
6.256	1.775710689	
6.258	1.656470588	
6.26	1.156951247	
6.262	1.234296178	
6.264	1.70481117	
6.266	1.714479286	
6.268	1.240741588	
6.27	1.189178302	
6.272	1.656470588	
6.274	1.698365759	
6.276	1.243964294	
6.278	1.173064775	
6.28	1.621020829	
6.282	1.814383154	
6.284	1.379317922	
6.286	1.160173953	
6.288	1.530785077	
6.29	1.759597162	
6.292	1.44377203	
6.294	1.115056077	
6.296	1.411544976	
6.298	1.775710689	
6.3	1.466330968	
6.302	1.06349279	
6.304	1.298750286	
6.306	1.749929046	
6.308	1.640357061	
6.31	1.131169604	
6.312	1.189178302	
6.314	1.698365759	
6.316	1.608130007	
6.318	1.166619364	
6.32	1.182732891	
6.322	1.653247883	
6.324	1.720924697	
6.326	1.202069123	
6.328	1.179510185	
6.33	1.598461891	
6.332	1.675806821	
6.334	1.260077821	
6.336	1.089274434	
6.338	1.527562371	
6.34	1.730592813	
6.342	1.353536278	
6.344	1.092497139	
6.346	1.427658503	
6.348	1.753151751	
6.35	1.482444495	
6.352	1.118278782	
6.354	1.334200046	
6.356	1.743483635	
6.358	1.601684596	
6.36	1.14083772	
6.362	1.301972992	
6.364	1.817605859	
6.366	1.743483635	
6.368	1.247186999	
6.37	1.305195697	
6.372	1.762819867	
6.374	1.791824216	
6.376	1.311641108	
6.378	1.256855116	
6.38	1.71125658	
6.382	1.820828565	
6.384	1.353536278	
6.386	1.237518883	
6.388	1.659693294	
6.39	1.804715038	
6.392	1.392208743	
6.394	1.205291829	
6.396	1.598461891	
6.398	1.865946441	
6.4	1.482444495	
6.402	1.205291829	
6.404	1.585571069	
6.406	1.862723735	
6.408	1.579125658	
6.41	1.208514534	
6.412	1.411544976	
6.414	1.833719387	
6.416	1.659693294	
6.418	1.202069123	
6.42	1.318086519	
6.422	1.775710689	
6.424	1.695143053	
6.426	1.247186999	
6.428	1.321309224	
6.43	1.798269627	
6.432	1.804715038	
6.434	1.308418402	
6.436	1.247186999	
6.438	1.724147402	
6.44	1.840164797	
6.442	1.363204395	
6.444	1.214959945	
6.446	1.637134356	
6.448	1.82405127	
6.45	1.437326619	
6.452	1.214959945	
6.454	1.575902953	
6.456	1.888505379	
6.458	1.524339666	
6.46	1.234296178	
6.462	1.511448844	
6.464	1.865946441	
6.466	1.621020829	
6.468	1.260077821	
6.47	1.508226139	
6.472	1.920732433	
6.474	1.720924697	
6.476	1.250409705	
6.478	1.363204395	
6.48	1.849832914	
6.482	1.778933394	
6.484	1.356758984	
6.486	1.372872511	
6.488	1.827273976	
6.49	1.833719387	
6.492	1.353536278	
6.494	1.311641108	
6.496	1.74670634	
6.498	1.830496681	
6.5	1.363204395	
6.502	1.250409705	
6.504	1.675806821	
6.506	1.85950103	
6.508	1.469553674	
6.51	1.298750286	
6.512	1.621020829	
6.514	1.865946441	
6.516	1.559789425	
6.518	1.260077821	
6.52	1.524339666	
6.522	1.853055619	
6.524	1.566234836	
6.526	1.131169604	
6.528	1.343868162	
6.53	1.814383154	
6.532	1.675806821	
6.534	1.266523232	
6.536	1.395431449	
6.538	1.872391852	
6.54	1.7821561	
6.542	1.272968643	
6.544	1.382540627	
6.546	1.940068666	
6.548	1.975518425	
6.55	1.52111696	
6.552	1.559789425	
6.554	2.139876402	
6.556	2.226889448	
6.558	1.762819867	
6.56	1.762819867	
6.562	2.304234379	
6.564	2.536269169	
6.566	2.159212634	
6.568	2.01419089	
6.57	2.439588006	
6.572	2.707072557	
6.574	2.410583658	
6.576	2.12698558	
6.578	2.42991989	
6.58	2.787640192	
6.582	2.481483177	
6.584	2.101203937	
6.586	2.330016022	
6.588	2.748967727	
6.59	2.533046464	
6.592	2.036749828	
6.594	2.120540169	
6.596	2.584609751	
6.598	2.426697185	
6.6	1.904618906	
6.602	1.943291371	
6.604	2.523378347	
6.606	2.446033417	
6.608	1.875614557	
6.61	1.807937743	
6.612	2.342906844	
6.614	2.433142596	
6.616	1.875614557	
6.618	1.695143053	
6.62	2.143099107	
6.622	2.381579309	
6.624	1.89495079	
6.626	1.621020829	
6.628	2.00774548	
6.63	2.410583658	
6.632	1.965850309	
6.634	1.572680247	
6.636	1.833719387	
6.638	2.236557565	
6.64	1.943291371	
6.642	1.498558022	
6.644	1.743483635	
6.646	2.201107805	
6.648	1.994854658	
6.65	1.456662852	
6.652	1.659693294	
6.654	2.23978027	
6.656	2.08509041	
6.658	1.524339666	
6.66	1.569457542	
6.662	2.184994278	
6.664	2.123762875	
6.666	1.550121309	
6.668	1.51467155	
6.67	2.136653696	
6.672	2.168880751	
6.674	1.624243534	
6.676	1.501780728	
6.678	1.927177844	
6.68	2.130208286	
6.682	1.695143053	
6.684	1.472776379	
6.686	1.89495079	
6.688	2.1978851	
6.69	1.869169146	
6.692	1.527562371	
6.694	1.927177844	
6.696	2.355797665	
6.698	2.133430991	
6.7	1.766042573	
6.702	2.01419089	
6.704	2.520155642	
6.706	2.452478828	
6.708	2.081867704	
6.71	2.301011673	
6.712	2.835980774	
6.714	2.84564889	
6.716	2.410583658	
6.718	2.549159991	
6.72	3.07768368	
6.722	3.090574502	
6.724	2.613614099	
6.726	2.600723278	
6.728	3.129246967	
6.73	3.145360494	
6.732	2.610391394	
6.734	2.552382696	
6.736	2.942330053	
6.738	3.026120394	
6.74	2.513710231	
6.742	2.3171252	
6.744	2.658731975	
6.746	2.800531014	
6.748	2.288120851	
6.75	2.033527123	
6.752	2.336461433	
6.754	2.607168688	
6.756	2.226889448	
6.758	1.820828565	
6.76	2.081867704	
6.762	2.471815061	
6.764	2.223666743	
6.766	1.830496681	
6.768	1.985186542	
6.77	2.407360952	
6.772	2.159212634	
6.774	1.611352712	
6.776	1.701588464	
6.778	2.207553216	
6.78	2.136653696	
6.782	1.646802472	
6.784	1.624243534	
6.786	2.101203937	
6.788	2.117317464	
6.79	1.572680247	
6.792	1.466330968	
6.794	1.930400549	
6.796	2.117317464	
6.798	1.646802472	
6.8	1.417990387	
6.802	1.766042573	
6.804	2.068976883	
6.806	1.724147402	
6.808	1.382540627	
6.81	1.682252232	
6.812	2.220444038	
6.814	1.920732433	
6.816	1.421213092	
6.818	1.530785077	
6.82	2.091535821	
6.822	1.920732433	
6.824	1.369649805	
6.826	1.466330968	
6.828	2.072199588	
6.83	1.991631952	
6.832	1.408322271	
6.834	1.408322271	
6.836	1.978741131	
6.838	1.978741131	
6.84	1.424435798	
6.842	1.359981689	
6.844	1.85950103	
6.846	1.981963836	
6.848	1.456662852	
6.85	1.308418402	
6.852	1.759597162	
6.854	1.988409247	
6.856	1.55656672	
6.858	1.395431449	
6.86	1.724147402	
6.862	1.985186542	
6.864	1.595239185	
6.866	1.279414054	
6.868	1.559789425	
6.87	1.917509728	
6.872	1.66936141	
6.874	1.282636759	
6.876	1.437326619	
6.878	1.885282673	
6.88	1.727370108	
6.882	1.202069123	
6.884	1.260077821	
6.886	1.762819867	
6.888	1.70481117	
6.89	1.237518883	
6.892	1.198846418	
6.894	1.675806821	
6.896	1.775710689	
6.898	1.32453193	
6.9	1.166619364	
6.902	1.604907301	
6.904	1.920732433	
6.906	1.47922179	
6.908	1.179510185	
6.91	1.511448844	
6.912	1.882059968	
6.914	1.572680247	
6.916	1.185955596	
6.918	1.437326619	
6.92	1.882059968	
6.922	1.653247883	
6.924	1.208514534	
6.926	1.385763333	
6.928	1.891728084	
6.93	1.756374456	
6.932	1.189178302	
6.934	1.25363241	
6.936	1.85950103	
6.938	1.846610208	
6.94	1.305195697	
6.942	1.305195697	
6.944	1.907841611	
6.946	1.975518425	
6.948	1.453440146	
6.95	1.382540627	
6.952	1.878837263	
6.954	2.01419089	
6.956	1.51467155	
6.958	1.305195697	
6.96	1.74670634	
6.962	2.046417945	
6.964	1.666138705	
6.966	1.327754635	
6.968	1.637134356	
6.97	2.059308766	
6.972	1.7821561	
6.974	1.321309224	
6.976	1.511448844	
6.978	2.001300069	
6.98	1.827273976	
6.982	1.340645457	
6.984	1.421213092	
6.986	1.956182193	
6.988	1.920732433	
6.99	1.385763333	
6.992	1.295527581	
6.994	1.772487984	
6.996	1.875614557	
6.998	1.417990387	
7	1.247186999	
7.002	1.675806821	
7.004	1.882059968	
7.006	1.463108263	
7.008	1.198846418	
7.01	1.559789425	
7.012	1.904618906	
7.014	1.582348363	
7.016	1.243964294	
7.018	1.469553674	
7.02	1.901396201	
7.022	1.679029526	
7.024	1.247186999	
7.026	1.382540627	
7.028	1.914287022	
7.03	1.804715038	
7.032	1.256855116	
7.034	1.321309224	
7.036	1.891728084	
7.038	1.843387503	
7.04	1.298750286	
7.042	1.266523232	
7.044	1.849832914	
7.046	1.869169146	
7.048	1.417990387	
7.05	1.305195697	
7.052	1.801492332	
7.054	1.952959487	
7.056	1.47922179	
7.058	1.269745937	
7.06	1.672584115	
7.062	1.985186542	
7.064	1.624243534	
7.066	1.256855116	
7.068	1.553344015	
7.07	2.01419089	
7.072	1.727370108	
7.074	1.263300526	
7.076	1.408322271	
7.078	1.994854658	
7.08	1.798269627	
7.082	1.227850767	
7.084	1.260077821	
7.086	1.791824216	
7.088	1.753151751	
7.09	1.266523232	
7.092	1.198846418	
7.094	1.730592813	
7.096	1.817605859	
7.098	1.33097734	
7.1	1.124724193	
7.102	1.527562371	
7.104	1.7821561	
7.106	1.395431449	
7.108	1.214959945	
7.11	1.534007782	
7.112	1.846610208	
7.114	1.492112612	
7.116	1.127946899	
7.118	1.359981689	
7.12	1.82405127	
7.122	1.585571069	
7.124	1.166619364	
7.126	1.359981689	
7.128	1.849832914	
7.13	1.685474937	
7.132	1.195623713	
7.134	1.285859464	
7.136	1.830496681	
7.138	1.778933394	
7.14	1.224628061	
7.142	1.208514534	
7.144	1.737038224	
7.146	1.749929046	
7.148	1.21173724	
7.15	1.127946899	
7.152	1.653247883	
7.154	1.962627604	
7.156	1.459885557	
7.158	1.147283131	
7.16	1.540453193	
7.162	1.998077363	
7.164	1.614575418	
7.166	1.192401007	
7.168	1.456662852	
7.17	2.039972534	
7.172	1.772487984	
7.174	1.25363241	
7.176	1.417990387	
7.178	1.940068666	
7.18	1.798269627	
7.182	1.240741588	
7.184	1.301972992	
7.186	1.885282673	
7.188	1.878837263	
7.19	1.363204395	
7.192	1.269745937	
7.194	1.807937743	
7.196	1.927177844	
7.198	1.450217441	
7.2	1.321309224	
7.202	1.753151751	
7.204	1.978741131	
7.206	1.550121309	
7.208	1.285859464	
7.21	1.646802472	
7.212	2.004522774	
7.214	1.717701991	
7.216	1.472776379	
7.218	1.71125658	
7.22	2.123762875	
7.222	1.878837263	
7.224	1.527562371	
7.226	1.650025177	
7.228	2.072199588	
7.23	1.93684596	
7.232	1.498558022	
7.234	1.543675898	
7.236	2.010968185	
7.238	2.01419089	
7.24	1.534007782	
7.242	1.453440146	
7.244	1.93684596	
7.246	2.027081712	
7.248	1.550121309	
7.25	1.363204395	
7.252	1.820828565	
7.254	2.059308766	
7.256	1.650025177	
7.258	1.379317922	
7.26	1.749929046	
7.262	2.139876402	
7.264	1.766042573	
7.266	1.388986038	
7.268	1.643579767	
7.27	2.136653696	
7.272	1.865946441	
7.274	1.334200046	
7.276	1.51467155	
7.278	2.062531472	
7.28	1.882059968	
7.282	1.33097734	
7.284	1.482444495	
7.286	1.981963836	
7.288	1.885282673	
7.29	1.343868162	
7.292	1.318086519	
7.294	1.865946441	
7.296	1.843387503	
7.298	1.337422751	
7.3	1.266523232	
7.302	1.82405127	
7.304	1.885282673	
7.306	1.421213092	
7.308	1.353536278	
7.31	1.801492332	
7.312	1.998077363	
7.314	1.55656672	
7.316	1.347090867	
7.318	1.714479286	
7.32	2.001300069	
7.322	1.66936141	
7.324	1.301972992	
7.326	1.604907301	
7.328	1.969073014	
7.33	1.737038224	
7.332	1.266523232	
7.334	1.463108263	
7.336	1.956182193	
7.338	1.795046921	
7.34	1.305195697	
7.342	1.369649805	
7.344	1.911064317	
7.346	1.833719387	
7.348	1.334200046	
7.35	1.314863813	
7.352	1.885282673	
7.354	1.988409247	
7.356	1.492112612	
7.358	1.356758984	
7.36	1.872391852	
7.362	2.094758526	
7.364	1.601684596	
7.366	1.343868162	
7.368	1.778933394	
7.37	2.107649348	
7.372	1.71125658	
7.374	1.363204395	
7.376	1.688697642	
7.378	2.052863355	
7.38	1.7821561	
7.382	1.359981689	
7.384	1.604907301	
7.386	2.065754177	
7.388	1.843387503	
7.39	1.385763333	
7.392	1.511448844	
7.394	2.033527123	
7.396	1.898173495	
7.398	1.424435798	
7.4	1.463108263	
7.402	2.101203937	
7.404	1.675806821	
7.406	1.414767681	
7.408	1.775710689	
7.41	2.097981231	
7.412	1.733815518	
7.414	1.392208743	
7.416	1.691920348	
7.418	2.104426642	
7.42	1.830496681	
7.422	1.337422751	
7.424	1.572680247	
7.426	2.04964065	
7.428	1.869169146	
7.43	1.379317922	
7.432	1.485667201	
7.434	2.01419089	
7.436	1.907841611	
7.438	1.388986038	
7.44	1.440549325	
7.442	2.01419089	
7.444	1.962627604	
7.446	1.44377203	
7.448	1.440549325	
7.45	1.985186542	
7.452	2.00774548	
7.454	1.472776379	
7.456	1.408322271	
7.458	1.927177844	
7.46	2.107649348	
7.462	1.566234836	
7.464	1.453440146	
7.466	1.865946441	
7.468	2.059308766	
7.47	1.608130007	
7.472	1.376095216	
7.474	1.737038224	
7.476	2.056086061	
7.478	1.675806821	
7.48	1.347090867	
7.482	1.614575418	
7.484	2.068976883	
7.486	1.843387503	
7.488	1.40187686	
7.49	1.537230488	
7.492	2.117317464	
7.494	1.998077363	
7.496	1.47922179	
7.498	1.495335317	
7.5	2.020636301	
7.502	2.04964065	
7.504	1.469553674	
7.506	1.469553674	
7.508	2.104426642	
7.51	2.123762875	
7.512	1.52111696	
7.514	1.382540627	
7.516	1.93684596	
7.518	2.08509041	
7.52	1.572680247	
7.522	1.414767681	
7.524	1.843387503	
7.526	2.059308766	
7.528	1.63391165	
7.53	1.466330968	
7.532	1.817605859	
7.534	2.075422293	
7.536	1.737038224	
7.538	1.466330968	
7.54	1.727370108	
7.542	2.062531472	
7.544	1.833719387	
7.546	1.379317922	
7.548	1.572680247	
7.55	2.00774548	
7.552	1.920732433	
7.554	1.437326619	
7.556	1.524339666	
7.558	2.027081712	
7.56	1.911064317	
7.562	1.398654154	
7.564	1.411544976	
7.566	1.969073014	
7.568	1.969073014	
7.57	1.44377203	
7.572	1.301972992	
7.574	1.846610208	
7.576	2.094758526	
7.578	1.585571069	
7.58	1.359981689	
7.582	1.801492332	
7.584	2.094758526	
7.586	1.646802472	
7.588	1.32453193	
7.59	1.743483635	
7.592	2.078644999	
7.594	1.720924697	
7.596	1.266523232	
7.598	1.611352712	
7.6	2.056086061	
7.602	1.801492332	
7.604	1.376095216	
7.606	1.55656672	
7.608	2.036749828	
7.61	1.878837263	
7.612	1.434103914	
7.614	1.534007782	
7.616	2.027081712	
7.618	1.933623255	
7.62	1.388986038	
7.622	1.417990387	
7.624	1.978741131	
7.626	1.927177844	
7.628	1.363204395	
7.63	1.334200046	
7.632	1.891728084	
7.634	1.994854658	
7.636	1.459885557	
7.638	1.340645457	
7.64	1.833719387	
7.642	2.030304417	
7.644	1.517894255	
7.646	1.298750286	
7.648	1.74670634	
7.65	2.023859007	
7.652	1.614575418	
7.654	1.279414054	
7.656	1.611352712	
7.658	1.962627604	
7.66	1.646802472	
7.662	1.263300526	
7.664	1.472776379	
7.666	1.975518425	
7.668	1.737038224	
7.67	1.272968643	
7.672	1.395431449	
7.674	1.904618906	
7.676	1.820828565	
7.678	1.28908217	
7.68	1.353536278	
7.682	1.97229572	
7.684	1.930400549	
7.686	1.350313573	
7.688	1.260077821	
7.69	1.795046921	
7.692	1.89495079	
7.694	1.343868162	
7.696	1.260077821	
7.698	1.759597162	
7.7	1.952959487	
7.702	1.446994736	
7.704	1.192401007	
7.706	1.646802472	
7.708	1.907841611	
7.71	1.469553674	
7.712	1.173064775	
7.714	1.501780728	
7.716	1.917509728	
7.718	1.546898604	
7.72	1.160173953	
7.722	1.492112612	
7.724	1.911064317	
7.726	1.679029526	
7.728	1.192401007	
7.73	1.417990387	
7.732	1.946514076	
7.734	1.720924697	
7.736	1.185955596	
7.738	1.334200046	
7.74	1.878837263	
7.742	1.817605859	
7.744	1.214959945	
7.746	1.282636759	
7.748	1.843387503	
7.75	1.872391852	
7.752	1.337422751	
7.754	1.21173724	
7.756	1.737038224	
7.758	1.904618906	
7.76	1.376095216	
7.762	1.240741588	
7.764	1.688697642	
7.766	1.911064317	
7.768	1.466330968	
7.77	1.185955596	
7.772	1.627466239	
7.774	1.943291371	
7.776	1.563012131	
7.778	1.221405356	
7.78	1.505003433	
7.782	1.959404898	
7.784	1.737038224	
7.786	1.192401007	
7.788	1.424435798	
7.79	1.898173495	
7.792	1.795046921	
7.794	1.279414054	
7.796	1.398654154	
7.798	1.940068666	
7.8	1.891728084	
7.802	1.301972992	
7.804	1.292304875	
7.806	1.875614557	
7.808	1.962627604	
7.81	1.379317922	
7.812	1.240741588	
7.814	1.733815518	
7.816	1.981963836	
7.818	1.511448844	
7.82	1.221405356	
7.822	1.617798123	
7.824	1.956182193	
7.826	1.52111696	
7.828	1.198846418	
7.83	1.537230488	
7.832	1.991631952	
7.834	1.740260929	
7.836	1.269745937	
7.838	1.505003433	
7.84	1.97229572	
7.842	1.801492332	
7.844	1.25363241	
7.846	1.308418402	
7.848	1.959404898	
7.85	1.917509728	
7.852	1.276191348	
7.854	1.279414054	
7.856	1.817605859	
7.858	2.020636301	
7.86	1.437326619	
7.862	1.266523232	
7.864	1.756374456	
7.866	1.869169146	
7.868	1.440549325	
7.87	1.221405356	
7.872	1.659693294	
7.874	1.97229572	
7.876	1.524339666	
7.878	1.308418402	
7.88	1.598461891	
7.882	1.952959487	
7.884	1.666138705	
7.886	1.166619364	
7.888	1.414767681	
7.89	1.952959487	
7.892	1.769265278	
7.894	1.21818265	
7.896	1.314863813	
7.898	1.978741131	
7.9	1.907841611	
7.902	1.321309224	
7.904	1.298750286	
7.906	1.830496681	
7.908	1.946514076	
7.91	1.363204395	
7.912	1.202069123	
7.914	1.695143053	
7.916	1.911064317	
7.918	1.534007782	
7.92	1.269745937	
7.922	1.662915999	
7.924	1.940068666	
7.926	1.559789425	
7.928	1.308418402	
7.93	1.604907301	
7.932	1.988409247	
7.934	1.643579767	
7.936	1.166619364	
7.938	1.450217441	
7.94	2.001300069	
7.942	1.817605859	
7.944	1.240741588	
7.946	1.372872511	
7.948	2.081867704	
7.95	2.004522774	
7.952	1.3664271	
7.954	1.301972992	
7.956	1.849832914	
7.958	1.920732433	
7.96	1.388986038	
7.962	1.321309224	
7.964	1.820828565	
7.966	1.988409247	
7.968	1.55656672	
7.97	1.524339666	
7.972	1.943291371	
7.974	2.20433051	
7.976	1.830496681	
7.978	1.543675898	
7.98	2.027081712	
7.982	2.523378347	
7.984	2.307457084	
7.986	1.946514076	
7.988	2.23978027	
7.99	2.877875944	
7.992	2.742522316	
7.994	2.217221332	
7.996	2.262339208	
7.998	2.871430533	
8	2.871430533	
8.002	2.255893797	
8.004	2.217221332	
8.006	2.745745022	
8.008	2.823089952	
8.01	2.284898146	
8.012	2.117317464	
8.014	2.57816434	
8.016	2.710295262	
8.018	2.175326162	
8.02	1.985186542	
8.022	2.375133898	
8.024	2.623282216	
8.026	2.152767224	
8.028	1.759597162	
8.03	2.110872053	
8.032	2.523378347	
8.034	2.178548867	
8.036	1.630688945	
8.038	1.833719387	
8.04	2.475037766	
8.042	2.252671092	
8.044	1.608130007	
8.046	1.63391165	
8.048	2.194662394	
8.05	2.188216983	
8.052	1.595239185	
8.054	1.575902953	
8.056	2.139876402	
8.058	2.233334859	
8.06	1.63391165	
8.062	1.472776379	
8.064	1.991631952	
8.066	2.175326162	
8.068	1.630688945	
8.07	1.363204395	
8.072	1.836942092	
8.074	2.178548867	
8.076	1.772487984	
8.078	1.382540627	
8.08	1.701588464	
8.082	2.123762875	
8.084	1.869169146	
8.086	1.376095216	
8.088	1.534007782	
8.09	2.056086061	
8.092	1.872391852	
8.094	1.347090867	
8.096	1.492112612	
8.098	2.081867704	
8.1	2.039972534	
8.102	1.376095216	
8.104	1.392208743	
8.106	1.981963836	
8.108	2.023859007	
8.11	1.459885557	
8.112	1.334200046	
8.114	1.85950103	
8.116	2.097981231	
8.118	1.646802472	
8.12	1.372872511	
8.122	1.740260929	
8.124	2.078644999	
8.126	1.698365759	
8.128	1.298750286	
8.13	1.624243534	
8.132	2.12698558	
8.134	1.840164797	
8.136	1.32453193	
8.138	1.55656672	
8.14	2.08509041	
8.142	1.89495079	
8.144	1.305195697	
8.146	1.440549325	
8.148	2.059308766	
8.15	2.039972534	
8.152	1.430881209	
8.154	1.395431449	
8.156	1.969073014	
8.158	2.068976883	
8.16	1.52111696	
8.162	1.343868162	
8.164	1.846610208	
8.166	2.075422293	
8.168	1.621020829	
8.17	1.424435798	
8.172	1.807937743	
8.174	2.081867704	
8.176	1.698365759	
8.178	1.343868162	
8.18	1.662915999	
8.182	2.08509041	
8.184	1.820828565	
8.186	1.32453193	
8.188	1.55656672	
8.19	2.101203937	
8.192	1.920732433	
8.194	1.340645457	
8.196	1.430881209	
8.198	2.027081712	
8.2	2.017413596	
8.202	1.392208743	
8.204	1.353536278	
8.206	1.911064317	
8.208	2.023859007	
8.21	1.498558022	
8.212	1.340645457	
8.214	1.853055619	
8.216	2.08509041	
8.218	1.627466239	
8.22	1.372872511	
8.222	1.743483635	
8.224	2.101203937	
8.226	1.743483635	
8.228	1.356758984	
8.23	1.675806821	
8.232	2.12698558	
8.234	1.849832914	
8.236	1.340645457	
8.238	1.559789425	
8.24	2.120540169	
8.242	1.956182193	
8.244	1.385763333	
8.246	1.466330968	
8.248	2.046417945	
8.25	2.075422293	
8.252	1.505003433	
8.254	1.446994736	
8.256	1.991631952	
8.258	2.088313115	
8.26	1.579125658	
8.262	1.408322271	
8.264	1.875614557	
8.266	2.107649348	
8.268	1.627466239	
8.27	1.405099565	
8.272	1.869169146	
8.274	2.223666743	
8.276	1.853055619	
8.278	1.47922179	
8.28	1.7821561	
8.282	2.210775921	
8.284	1.940068666	
8.286	1.427658503	
8.288	1.604907301	
8.29	2.178548867	
8.292	2.056086061	
8.294	1.540453193	
8.296	1.585571069	
8.298	2.16243534	
8.3	2.155989929	
8.302	1.546898604	
8.304	1.488889906	
8.306	2.004522774	
8.308	2.023859007	
8.31	1.482444495	
8.312	1.363204395	
8.314	1.89495079	
8.316	2.097981231	
8.318	1.621020829	
8.32	1.414767681	
8.322	1.820828565	
8.324	2.210775921	
8.326	1.743483635	
8.328	1.340645457	
8.33	1.627466239	
8.332	2.097981231	
8.334	1.762819867	
8.336	1.276191348	
8.338	1.546898604	
8.34	2.072199588	
8.342	1.969073014	
8.344	1.472776379	
8.346	1.537230488	
8.348	2.101203937	
8.35	2.00774548	
8.352	1.427658503	
8.354	1.369649805	
8.356	1.927177844	
8.358	2.059308766	
8.36	1.572680247	
8.362	1.424435798	
8.364	1.920732433	
8.366	2.133430991	
8.368	1.621020829	
8.37	1.356758984	
8.372	1.804715038	
8.374	2.094758526	
8.376	1.624243534	
8.378	1.298750286	
8.38	1.727370108	
8.382	2.149544518	
8.384	1.827273976	
8.386	1.337422751	
8.388	1.575902953	
8.39	2.213998627	
8.392	2.00774548	
8.394	1.392208743	
8.396	1.472776379	
8.398	2.059308766	
8.4	2.001300069	
8.402	1.395431449	
8.404	1.405099565	
8.406	2.036749828	
8.408	2.088313115	
8.41	1.534007782	
8.412	1.44377203	
8.414	1.927177844	
8.416	2.130208286	
8.418	1.604907301	
8.42	1.350313573	
8.422	1.766042573	
8.424	2.101203937	
8.426	1.71125658	
8.428	1.337422751	
8.43	1.679029526	
8.432	2.133430991	
8.434	1.843387503	
8.436	1.385763333	
8.438	1.569457542	
8.44	2.078644999	
8.442	1.862723735	
8.444	1.33097734	
8.446	1.424435798	
8.448	1.998077363	
8.45	1.978741131	
8.452	1.382540627	
8.454	1.379317922	
8.456	1.959404898	
8.458	2.01419089	
8.46	1.482444495	
8.462	1.327754635	
8.464	1.814383154	
8.466	1.985186542	
8.468	1.498558022	
8.47	1.301972992	
8.472	1.720924697	
8.474	2.033527123	
8.476	1.656470588	
8.478	1.376095216	
8.48	1.708033875	
8.482	2.210775921	
8.484	1.862723735	
8.486	1.353536278	
8.488	1.55656672	
8.49	2.065754177	
8.492	1.901396201	
8.494	1.408322271	
8.496	1.505003433	
8.498	2.104426642	
8.5	2.059308766	
8.502	1.463108263	
8.504	1.382540627	
8.506	1.946514076	
8.508	1.962627604	
8.51	1.427658503	
8.512	1.334200046	
8.514	1.804715038	
8.516	2.056086061	
8.518	1.585571069	
8.52	1.340645457	
8.522	1.766042573	
8.524	2.139876402	
8.526	1.740260929	
8.528	1.337422751	
8.53	1.630688945	
8.532	2.097981231	
8.534	1.7821561	
8.536	1.318086519	
8.538	1.559789425	
8.54	2.094758526	
8.542	1.943291371	
8.544	1.398654154	
8.546	1.508226139	
8.548	2.081867704	
8.55	2.020636301	
8.552	1.430881209	
8.554	1.334200046	
8.556	1.898173495	
8.558	1.956182193	
8.56	1.405099565	
8.562	1.350313573	
8.564	1.891728084	
8.566	2.081867704	
8.568	1.550121309	
8.57	1.379317922	
8.572	1.801492332	
8.574	2.020636301	
8.576	1.582348363	
8.578	1.282636759	
8.58	1.640357061	
8.582	2.04964065	
8.584	1.730592813	
8.586	1.350313573	
8.588	1.588793774	
8.59	2.04964065	
8.592	1.833719387	
8.594	1.337422751	
8.596	1.398654154	
8.598	1.956182193	
8.6	1.820828565	
8.602	1.356758984	
8.604	1.414767681	
8.606	1.97229572	
8.608	1.985186542	
8.61	1.469553674	
8.612	1.469553674	
8.614	1.949736782	
8.616	2.017413596	
8.618	1.482444495	
8.62	1.314863813	
8.622	1.830496681	
8.624	2.023859007	
8.626	1.530785077	
8.628	1.33097734	
8.63	1.772487984	
8.632	2.091535821	
8.634	1.666138705	
8.636	1.3664271	
8.638	1.679029526	
8.64	2.023859007	
8.642	1.662915999	
8.644	1.285859464	
8.646	1.543675898	
8.648	2.030304417	
8.65	1.807937743	
8.652	1.334200046	
8.654	1.495335317	
8.656	2.023859007	
8.658	1.93684596	
8.66	1.359981689	
8.662	1.369649805	
8.664	1.927177844	
8.666	1.853055619	
8.668	1.376095216	
8.67	1.334200046	
8.672	1.849832914	
8.674	1.698365759	
8.676	1.395431449	
8.678	1.785378805	
8.68	1.952959487	
8.682	1.437326619	
8.684	1.311641108	
8.686	1.840164797	
8.688	1.943291371	
8.69	1.453440146	
8.692	1.340645457	
8.694	1.798269627	
8.696	2.101203937	
8.698	1.604907301	
8.7	1.369649805	
8.702	1.778933394	
8.704	2.039972534	
8.706	1.643579767	
8.708	1.301972992	
8.71	1.608130007	
8.712	2.027081712	
8.714	1.701588464	
8.716	1.318086519	
8.718	1.559789425	
8.72	2.001300069	
8.722	1.814383154	
8.724	1.33097734	
8.726	1.466330968	
8.728	1.952959487	
8.73	1.769265278	
8.732	1.292304875	
8.734	1.385763333	
8.736	1.956182193	
8.738	1.927177844	
8.74	1.369649805	
8.742	1.388986038	
8.744	1.920732433	
8.746	1.994854658	
8.748	1.440549325	
8.75	1.256855116	
8.752	1.775710689	
8.754	1.927177844	
8.756	1.492112612	
8.758	1.301972992	
8.76	1.717701991	
8.762	2.017413596	
8.764	1.585571069	
8.766	1.347090867	
8.768	1.656470588	
8.77	1.959404898	
8.772	1.630688945	
8.774	1.227850767	
8.776	1.475999084	
8.778	1.920732433	
8.78	1.675806821	
8.782	1.221405356	
8.784	1.421213092	
8.786	2.010968185	
8.788	1.856278325	
8.79	1.256855116	
8.792	1.318086519	
8.794	1.878837263	
8.796	1.801492332	
8.798	1.279414054	
8.8	1.240741588	
8.802	1.766042573	
8.804	1.898173495	
8.806	1.40187686	
8.808	1.272968643	
8.81	1.708033875	
8.812	1.898173495	
8.814	1.472776379	
8.816	1.227850767	
8.818	1.598461891	
8.82	1.901396201	
8.822	1.543675898	
8.824	1.21173724	
8.826	1.498558022	
8.828	1.969073014	
8.83	1.70481117	
8.832	1.21173724	
8.834	1.424435798	
8.836	1.914287022	
8.838	1.759597162	
8.84	1.208514534	
8.842	1.28908217	
8.844	1.85950103	
8.846	1.785378805	
8.848	1.285859464	
8.85	1.260077821	
8.852	1.788601511	
8.854	1.891728084	
8.856	1.347090867	
8.858	1.202069123	
8.86	1.66936141	
8.862	1.898173495	
8.864	1.488889906	
8.866	1.182732891	
8.868	1.572680247	
8.87	1.904618906	
8.872	1.566234836	
8.874	1.21173724	
8.876	1.59201648	
8.878	1.927177844	
8.88	1.540453193	
8.882	1.173064775	
8.884	1.508226139	
8.886	1.93684596	
8.888	1.653247883	
8.89	1.182732891	
8.892	1.405099565	
8.894	1.901396201	
8.896	1.740260929	
8.898	1.234296178	
8.9	1.318086519	
8.902	1.849832914	
8.904	1.833719387	
8.906	1.295527581	
8.908	1.276191348	
8.91	1.798269627	
8.912	1.865946441	
8.914	1.353536278	
8.916	1.224628061	
8.918	1.714479286	
8.92	1.878837263	
8.922	1.411544976	
8.924	1.205291829	
8.926	1.637134356	
8.928	1.901396201	
8.93	1.463108263	
8.932	1.131169604	
8.934	1.511448844	
8.936	1.898173495	
8.938	1.566234836	
8.94	1.150505837	
8.942	1.392208743	
8.944	1.869169146	
8.946	1.730592813	
8.948	1.247186999	
8.95	1.343868162	
8.952	1.865946441	
8.954	1.817605859	
8.956	1.276191348	
8.958	1.260077821	
8.96	1.814383154	
8.962	1.827273976	
8.964	1.285859464	
8.966	1.247186999	
8.968	1.743483635	
8.97	1.862723735	
8.972	1.359981689	
8.974	1.205291829	
8.976	1.666138705	
8.978	1.901396201	
8.98	1.463108263	
8.982	1.179510185	
8.984	1.537230488	
8.986	1.930400549	
8.988	1.662915999	
8.99	1.21173724	
8.992	1.408322271	
8.994	1.875614557	
8.996	1.720924697	
8.998	1.279414054	
9	1.337422751	
9.002	1.85950103	
9.004	1.820828565	
9.006	1.282636759	
9.008	1.272968643	
9.01	1.791824216	
9.012	1.820828565	
9.014	1.32453193	
9.016	1.266523232	
9.018	1.7821561	
9.02	1.888505379	
9.022	1.356758984	
9.024	1.185955596	
9.026	1.650025177	
9.028	1.946514076	
9.03	1.511448844	
9.032	1.182732891	
9.034	1.534007782	
9.036	1.943291371	
9.038	1.695143053	
9.04	1.224628061	
9.042	1.395431449	
9.044	1.89495079	
9.046	1.766042573	
9.048	1.269745937	
9.05	1.369649805	
9.052	1.89495079	
9.054	1.830496681	
9.056	1.285859464	
9.058	1.337422751	
9.06	1.878837263	
9.062	1.878837263	
9.064	1.337422751	
9.066	1.282636759	
9.068	1.811160449	
9.07	1.985186542	
9.072	1.508226139	
9.074	1.311641108	
9.076	1.740260929	
9.078	2.023859007	
9.08	1.614575418	
9.082	1.359981689	
9.084	1.640357061	
9.086	2.020636301	
9.088	1.74670634	
9.09	1.327754635	
9.092	1.505003433	
9.094	1.97229572	
9.096	1.817605859	
9.098	1.340645457	
9.1	1.427658503	
9.102	1.998077363	
9.104	1.911064317	
9.106	1.350313573	
9.108	1.385763333	
9.11	1.891728084	
9.112	1.865946441	
9.114	1.327754635	
9.116	1.305195697	
9.118	1.843387503	
9.12	1.962627604	
9.122	1.51467155	
9.124	1.359981689	
9.126	1.762819867	
9.128	2.01419089	
9.13	1.595239185	
9.132	1.234296178	
9.134	1.614575418	
9.136	1.985186542	
9.138	1.717701991	
9.14	1.314863813	
9.142	1.524339666	
9.144	1.97229572	
9.146	1.795046921	
9.148	1.318086519	
9.15	1.517894255	
9.152	2.046417945	
9.154	2.020636301	
9.156	1.440549325	
9.158	1.417990387	
9.16	1.956182193	
9.162	1.969073014	
9.164	1.572680247	
9.166	1.498558022	
9.168	1.946514076	
9.17	2.039972534	
9.172	1.530785077	
9.174	1.395431449	
9.176	1.785378805	
9.178	2.020636301	
9.18	1.598461891	
9.182	1.318086519	
9.184	1.740260929	
9.186	2.152767224	
9.188	1.788601511	
9.19	1.363204395	
9.192	1.614575418	
9.194	2.159212634	
9.196	1.872391852	
9.198	1.369649805	
9.2	1.495335317	
9.202	2.004522774	
9.204	1.875614557	
9.206	1.372872511	
9.208	1.453440146	
9.21	1.988409247	
9.212	1.985186542	
9.214	1.472776379	
9.216	1.424435798	
9.218	1.933623255	
9.22	2.030304417	
9.222	1.51467155	
9.224	1.353536278	
9.226	1.827273976	
9.228	2.065754177	
9.23	1.604907301	
9.232	1.356758984	
9.234	1.740260929	
9.236	2.075422293	
9.238	1.740260929	
9.24	1.369649805	
9.242	1.640357061	
9.244	2.062531472	
9.246	1.766042573	
9.248	1.32453193	
9.25	1.488889906	
9.252	2.001300069	
9.254	1.885282673	
9.256	1.311641108	
9.258	1.437326619	
9.26	2.01419089	
9.262	1.998077363	
9.264	1.434103914	
9.266	1.3664271	
9.268	1.917509728	
9.27	2.001300069	
9.272	1.44377203	
9.274	1.32453193	
9.276	1.807937743	
9.278	2.033527123	
9.28	1.601684596	
9.282	1.327754635	
9.284	1.70481117	
9.286	2.075422293	
9.288	1.714479286	
9.29	1.343868162	
9.292	1.595239185	
9.294	2.001300069	
9.296	1.708033875	
9.298	1.298750286	
9.3	1.524339666	
9.302	1.988409247	
9.304	1.85950103	
9.306	1.314863813	
9.308	1.453440146	
9.31	1.998077363	
9.312	1.962627604	
9.314	1.408322271	
9.316	1.405099565	
9.318	1.959404898	
9.32	2.004522774	
9.322	1.537230488	
9.324	1.434103914	
9.326	1.907841611	
9.328	2.081867704	
9.33	1.575902953	
9.332	1.372872511	
9.334	1.795046921	
9.336	2.023859007	
9.338	1.624243534	
9.34	1.334200046	
9.342	1.688697642	
9.344	2.104426642	
9.346	1.753151751	
9.348	1.337422751	
9.35	1.601684596	
9.352	2.143099107	
9.354	1.917509728	
9.356	1.40187686	
9.358	1.482444495	
9.36	2.01419089	
9.362	1.959404898	
9.364	1.411544976	
9.366	1.385763333	
9.368	1.933623255	
9.37	1.988409247	
9.372	1.469553674	
9.374	1.469553674	
9.376	1.962627604	
9.378	2.072199588	
9.38	1.543675898	
9.382	1.353536278	
9.384	1.798269627	
9.386	2.036749828	
9.388	1.617798123	
9.39	1.337422751	
9.392	1.662915999	
9.394	2.078644999	
9.396	1.788601511	
9.398	1.398654154	
9.4	1.588793774	
9.402	2.081867704	
9.404	1.862723735	
9.406	1.40187686	
9.408	1.524339666	
9.41	2.059308766	
9.412	1.93684596	
9.414	1.363204395	
9.416	1.437326619	
9.418	1.981963836	
9.42	2.001300069	
9.422	1.482444495	
9.424	1.421213092	
9.426	1.930400549	
9.428	2.165658045	
9.43	1.659693294	
9.432	1.388986038	
9.434	1.814383154	
9.436	2.104426642	
9.438	1.691920348	
9.44	1.434103914	
9.442	1.730592813	
9.444	2.104426642	
9.446	1.798269627	
9.448	1.463108263	
9.45	1.66936141	
9.452	2.104426642	
9.454	1.85950103	
9.456	1.392208743	
9.458	1.511448844	
9.46	2.036749828	
9.462	1.959404898	
9.464	1.434103914	
9.466	1.424435798	
9.468	2.010968185	
9.47	2.068976883	
9.472	1.52111696	
9.474	1.398654154	
9.476	1.891728084	
9.478	2.081867704	
9.48	1.601684596	
9.482	1.475999084	
9.484	1.865946441	
9.486	2.110872053	
9.488	1.685474937	
9.49	1.359981689	
9.492	1.708033875	
9.494	2.130208286	
9.496	1.801492332	
9.498	1.379317922	
9.5	1.611352712	
9.502	2.152767224	
9.504	1.962627604	
9.506	1.408322271	
9.508	1.511448844	
9.51	2.059308766	
9.512	2.020636301	
9.514	1.459885557	
9.516	1.47922179	
9.518	2.01419089	
9.52	2.065754177	
9.522	1.559789425	
9.524	1.482444495	
9.526	1.952959487	
9.528	2.068976883	
9.53	1.540453193	
9.532	1.363204395	
9.534	1.753151751	
9.536	2.097981231	
9.538	1.70481117	
9.54	1.363204395	
9.542	1.653247883	
9.544	2.033527123	
9.546	1.7821561	
9.548	1.318086519	
9.55	1.51467155	
9.552	2.030304417	
9.554	1.89495079	
9.556	1.385763333	
9.558	1.511448844	
9.56	2.036749828	
9.562	1.940068666	
9.564	1.482444495	
9.566	1.485667201	
9.568	2.004522774	
9.57	2.01419089	
9.572	1.453440146	
9.574	1.388986038	
9.576	1.959404898	
9.578	2.175326162	
9.58	1.608130007	
9.582	1.385763333	
9.584	1.875614557	
9.586	2.081867704	
9.588	1.614575418	
9.59	1.411544976	
9.592	1.769265278	
9.594	2.088313115	
9.596	1.724147402	
9.598	1.417990387	
9.6	1.737038224	
9.602	2.08509041	
9.604	1.769265278	
9.606	1.353536278	
9.608	1.614575418	
9.61	2.094758526	
9.612	1.869169146	
9.614	1.3664271	
9.616	1.485667201	
9.618	2.065754177	
9.62	2.010968185	
9.622	1.434103914	
9.624	1.379317922	
9.626	1.914287022	
9.628	1.994854658	
9.63	1.492112612	
9.632	1.424435798	
9.634	1.923955138	
9.636	2.033527123	
9.638	1.55656672	
9.64	1.392208743	
9.642	1.817605859	
9.644	2.152767224	
9.646	1.662915999	
9.648	1.356758984	
9.65	1.71125658	
9.652	2.130208286	
9.654	1.804715038	
9.656	1.356758984	
9.658	1.640357061	
9.66	2.081867704	
9.662	1.907841611	
9.664	1.421213092	
9.666	1.51467155	
9.668	2.020636301	
9.67	1.930400549	
9.672	1.456662852	
9.674	1.488889906	
9.676	2.027081712	
9.678	1.969073014	
9.68	1.463108263	
9.682	1.414767681	
9.684	1.962627604	
9.686	2.107649348	
9.688	1.559789425	
9.69	1.388986038	
9.692	1.843387503	
9.694	2.114094759	
9.696	1.662915999	
9.698	1.363204395	
9.7	1.685474937	
9.702	2.078644999	
9.704	1.753151751	
9.706	1.372872511	
9.708	1.650025177	
9.71	2.097981231	
9.712	1.869169146	
9.714	1.440549325	
9.716	1.624243534	
9.718	2.130208286	
9.72	1.952959487	
9.722	1.417990387	
9.724	1.495335317	
9.726	2.12698558	
9.728	2.101203937	
9.73	1.566234836	
9.732	1.475999084	
9.734	2.036749828	
9.736	2.172103456	
9.738	1.640357061	
9.74	1.47922179	
9.742	1.898173495	
9.744	2.143099107	
9.746	1.682252232	
9.748	1.450217441	
9.75	1.791824216	
9.752	2.088313115	
9.754	1.756374456	
9.756	1.372872511	
9.758	1.679029526	
9.76	2.159212634	
9.762	1.888505379	
9.764	1.3664271	
9.766	1.524339666	
9.768	2.114094759	
9.77	1.985186542	
9.772	1.421213092	
9.774	1.430881209	
9.776	1.962627604	
9.778	1.949736782	
9.78	1.408322271	
9.782	1.417990387	
9.784	1.930400549	
9.786	2.010968185	
9.788	1.511448844	
9.79	1.385763333	
9.792	1.830496681	
9.794	2.023859007	
9.796	1.537230488	
9.798	1.33097734	
9.8	1.740260929	
9.802	2.056086061	
9.804	1.662915999	
9.806	1.285859464	
9.808	1.598461891	
9.81	2.033527123	
9.812	1.788601511	
9.814	1.308418402	
9.816	1.52111696	
9.818	2.00774548	
9.82	1.807937743	
9.822	1.33097734	
9.824	1.47922179	
9.826	2.017413596	
9.828	1.872391852	
9.83	1.279414054	
9.832	1.369649805	
9.834	1.901396201	
9.836	1.901396201	
9.838	1.385763333	
9.84	1.398654154	
9.842	1.93684596	
9.844	2.010968185	
9.846	1.466330968	
9.848	1.343868162	
9.85	1.849832914	
9.852	2.056086061	
9.854	1.585571069	
9.856	1.353536278	
9.858	1.762819867	
9.86	2.033527123	
9.862	1.666138705	
9.864	1.382540627	
9.866	1.733815518	
9.868	2.062531472	
9.87	1.701588464	
9.872	1.292304875	
9.874	1.55656672	
9.876	2.078644999	
9.878	1.865946441	
9.88	1.382540627	
9.882	1.517894255	
9.884	2.033527123	
9.886	1.917509728	
9.888	1.363204395	
9.89	1.398654154	
9.892	1.949736782	
9.894	1.978741131	
9.896	1.398654154	
9.898	1.359981689	
9.9	1.891728084	
9.902	1.952959487	
9.904	1.456662852	
9.906	1.3664271	
9.908	1.85950103	
9.91	1.985186542	
9.912	1.517894255	
9.914	1.308418402	
9.916	1.70481117	
9.918	2.036749828	
9.92	1.698365759	
9.922	1.388986038	
9.924	1.698365759	
9.926	2.056086061	
9.928	1.740260929	
9.93	1.343868162	
9.932	1.598461891	
9.934	2.094758526	
9.936	1.875614557	
9.938	1.395431449	
9.94	1.540453193	
9.942	2.059308766	
9.944	1.898173495	
9.946	1.359981689	
9.948	1.488889906	
9.95	2.046417945	
9.952	1.994854658	
9.954	1.40187686	
9.956	1.414767681	
9.958	1.998077363	
9.96	2.088313115	
9.962	1.559789425	
9.964	1.385763333	
9.966	1.827273976	
9.968	2.017413596	
9.97	1.585571069	
9.972	1.434103914	
9.974	1.853055619	
9.976	2.114094759	
9.978	1.695143053	
9.98	1.356758984	
9.982	1.672584115	
9.984	2.046417945	
9.986	1.762819867	
9.988	1.382540627	
9.99	1.643579767	
9.992	2.088313115	
9.994	1.811160449	
9.996	1.340645457	
9.998	1.543675898	
10	2.088313115	
10.002	1.975518425	
10.004	1.411544976	
10.006	1.44377203	
10.008	2.01419089	
10.01	2.004522774	
10.012	1.466330968	
10.014	1.469553674	
10.016	1.975518425	
10.018	2.094758526	
10.02	1.582348363	
10.022	1.814383154	
10.024	1.421213092	
10.026	1.575902953	
10.028	2.104426642	
10.03	2.12698558	
10.032	1.943291371	
10.034	1.456662852	
10.036	1.453440146	
10.038	1.991631952	
10.04	2.191439689	
10.042	2.056086061	
10.044	1.672584115	
10.046	1.379317922	
10.048	1.563012131	
10.05	2.023859007	
10.052	2.120540169	
10.054	1.988409247	
10.056	1.437326619	
10.058	1.337422751	
10.06	1.778933394	
10.062	1.840164797	
10.064	2.033527123	
10.066	1.691920348	
10.068	1.350313573	
10.07	1.540453193	
10.072	1.630688945	
10.074	2.117317464	
10.076	2.004522774	
10.078	1.511448844	
10.08	1.55656672	
10.082	1.40187686	
10.084	1.885282673	
10.086	2.062531472	
10.088	1.737038224	
10.09	1.356758984	
10.092	1.301972992	
10.094	1.614575418	
10.096	2.075422293	
10.098	1.952959487	
10.1	1.440549325	
10.102	1.337422751	
10.104	1.398654154	
10.106	1.917509728	
10.108	2.020636301	
10.11	1.611352712	
10.112	1.604907301	
10.114	1.334200046	
10.116	1.617798123	
10.118	2.04964065	
10.12	1.830496681	
10.122	1.853055619	
10.124	1.347090867	
10.126	1.372872511	
10.128	1.856278325	
10.13	2.068976883	
10.132	1.956182193	
10.134	1.52111696	
10.136	1.292304875	
10.138	1.559789425	
10.14	1.959404898	
10.142	1.994854658	
10.144	1.772487984	
10.146	1.308418402	
10.148	1.298750286	
10.15	1.804715038	
10.152	1.907841611	
10.154	1.920732433	
10.156	1.44377203	
10.158	1.28908217	
10.16	1.643579767	
10.162	1.775710689	
10.164	2.078644999	
10.166	1.766042573	
10.168	1.343868162	
10.17	1.398654154	
10.172	1.540453193	
10.174	2.001300069	
10.176	1.946514076	
10.178	1.482444495	
10.18	1.314863813	
10.182	1.247186999	
10.184	1.730592813	
10.186	1.959404898	
10.188	1.685474937	
10.19	1.243964294	
10.192	1.305195697	
10.194	1.385763333	
10.196	1.853055619	
10.198	1.817605859	
10.2	1.321309224	
10.202	1.679029526	
10.204	2.01419089	
10.206	1.717701991	
10.208	1.298750286	
10.21	1.437326619	
10.212	2.027081712	
10.214	1.920732433	
10.216	1.379317922	
10.218	1.359981689	
10.22	1.830496681	
10.222	1.70481117	
10.224	2.123762875	
10.226	1.946514076	
10.228	1.492112612	
10.23	1.463108263	
10.232	2.039972534	
10.234	1.691920348	
10.236	1.263300526	
10.238	1.446994736	
10.24	1.946514076	
10.242	1.801492332	
10.244	2.110872053	
10.246	1.807937743	
10.248	1.334200046	
10.25	1.469553674	
10.252	1.875614557	
10.254	1.359981689	
10.256	1.337422751	
10.258	1.791824216	
10.26	1.901396201	
10.262	1.163396658	
10.264	1.388986038	
10.266	1.882059968	
10.268	1.788601511	
10.27	1.243964294	
10.272	1.820828565	
10.274	1.350313573	
10.276	1.127946899	
10.278	1.466330968	
10.28	1.836942092	
10.282	1.124724193	
10.284	1.392208743	
10.286	1.843387503	
10.288	1.70481117	
10.29	1.224628061	
10.292	1.611352712	
10.294	1.208514534	
10.296	1.363204395	
10.298	1.833719387	
10.3	1.882059968	
10.302	1.962627604	
10.304	1.566234836	
10.306	1.256855116	
10.308	1.450217441	
10.31	1.930400549	
10.312	1.392208743	
10.314	1.969073014	
10.316	1.998077363	
10.318	1.492112612	
10.32	1.405099565	
10.322	1.59201648	
10.324	2.056086061	
10.326	1.85950103	
10.328	1.3664271	
10.33	1.40187686	
10.332	1.998077363	
10.334	2.12698558	
10.336	1.63391165	
10.338	1.495335317	
10.34	1.862723735	
10.342	2.097981231	
10.344	2.233334859	
10.346	1.749929046	
10.348	1.508226139	
10.35	1.801492332	
10.352	2.175326162	
10.354	1.656470588	
10.356	1.492112612	
10.358	1.904618906	
10.36	2.349352255	
10.362	1.546898604	
10.364	1.927177844	
10.366	2.236557565	
10.368	1.891728084	
10.37	1.572680247	
10.372	2.178548867	
10.374	1.988409247	
10.376	1.456662852	
10.378	1.453440146	
10.38	1.991631952	
10.382	2.178548867	
10.384	1.714479286	
10.386	1.440549325	
10.388	1.679029526	
10.39	2.149544518	
10.392	2.01419089	
10.394	2.033527123	
10.396	1.585571069	
10.398	1.466330968	
10.4	1.817605859	
10.402	2.039972534	
10.404	2.217221332	
10.406	1.827273976	
10.408	1.456662852	
10.41	1.598461891	
10.412	1.901396201	
10.414	2.12698558	
10.416	1.756374456	
10.418	1.456662852	
10.42	1.688697642	
10.422	1.756374456	
10.424	2.172103456	
10.426	1.930400549	
10.428	1.446994736	
10.43	1.534007782	
10.432	1.869169146	
10.434	2.246225681	
10.436	2.017413596	
10.438	1.546898604	
10.44	1.595239185	
10.442	1.546898604	
10.444	1.998077363	
10.446	2.252671092	
10.448	1.943291371	
10.45	1.501780728	
10.452	1.598461891	
10.454	1.52111696	
10.456	1.959404898	
10.458	2.213998627	
10.46	1.917509728	
10.462	1.804715038	
10.464	2.359020371	
10.466	2.268784619	
10.468	1.672584115	
10.47	1.601684596	
10.472	1.933623255	
10.474	2.3171252	
10.476	1.759597162	
10.478	1.450217441	
10.48	1.940068666	
10.482	1.546898604	
10.484	1.814383154	
10.486	2.243002976	
10.488	2.117317464	
10.49	1.621020829	
10.492	2.20433051	
10.494	2.062531472	
10.496	1.52111696	
10.498	1.646802472	
10.5	2.223666743	
10.502	1.63391165	
10.504	1.508226139	
10.506	1.856278325	
10.508	2.16243534	
10.51	1.959404898	
10.512	1.888505379	
10.514	1.376095216	
10.516	1.405099565	
10.518	1.862723735	
10.52	2.036749828	
10.522	2.133430991	
10.524	1.814383154	
10.526	1.405099565	
10.528	1.498558022	
10.53	1.988409247	
10.532	2.062531472	
10.534	1.862723735	
10.536	1.392208743	
10.538	1.379317922	
10.54	1.878837263	
10.542	1.907841611	
10.544	1.946514076	
10.546	1.463108263	
10.548	1.285859464	
10.55	1.627466239	
10.552	1.363204395	
10.554	1.862723735	
10.556	2.04964065	
10.558	1.585571069	
10.56	1.308418402	
10.562	1.998077363	
10.564	2.436365301	
10.566	2.117317464	
10.568	1.698365759	
10.57	1.888505379	
10.572	1.998077363	
10.574	2.349352255	
10.576	2.114094759	
10.578	1.708033875	
10.58	1.753151751	
10.582	2.236557565	
10.584	2.259116503	
10.586	1.733815518	
10.588	1.608130007	
10.59	2.08509041	
10.592	2.252671092	
10.594	1.749929046	
10.596	1.601684596	
10.598	2.001300069	
10.6	2.346129549	
10.602	2.04964065	
10.604	1.47922179	
10.606	1.440549325	
10.608	1.952959487	
10.61	2.152767224	
10.612	1.492112612	
10.614	1.943291371	
10.616	2.104426642	
10.618	1.688697642	
10.62	1.350313573	
10.622	1.537230488	
10.624	1.224628061	
10.626	1.534007782	
10.628	1.962627604	
10.63	1.775710689	
10.632	1.221405356	
10.634	1.517894255	
10.636	1.985186542	
10.638	1.840164797	
10.64	1.33097734	
10.642	1.321309224	
10.644	1.756374456	
10.646	2.010968185	
10.648	1.640357061	
10.65	1.28908217	
10.652	2.056086061	
10.654	1.814383154	
10.656	1.32453193	
10.658	1.379317922	
10.66	1.911064317	
10.662	1.656470588	
10.664	1.234296178	
10.666	1.482444495	
10.668	1.962627604	
10.67	1.82405127	
10.672	1.398654154	
10.674	1.933623255	
10.676	1.975518425	
10.678	1.47922179	
10.68	1.334200046	
10.682	1.385763333	
10.684	1.737038224	
10.686	2.123762875	
10.688	1.933623255	
10.69	1.456662852	
10.692	1.872391852	
10.694	2.191439689	
10.696	1.898173495	
10.698	1.52111696	
10.7	1.740260929	
10.702	2.874653239	
10.704	2.433142596	
10.706	2.536269169	
10.708	3.106688029	
10.71	3.135692378	
10.712	2.223666743	
10.714	1.981963836	
10.716	2.278452735	
10.718	2.639395743	
10.72	2.446033417	
10.722	0.895912108	
10.724	1.301972992	
10.726	1.537230488	
10.728	1.198846418	
10.73	0.841126116	
10.732	0.828235294	
10.734	0.805676356	
10.736	1.347090867	
10.738	1.411544976	
10.74	0.815344472	
10.742	0.879798581	
10.744	1.260077821	
10.746	1.582348363	
10.748	1.250409705	
10.75	0.821789883	
10.752	1.208514534	
10.754	0.860462348	
10.756	1.115056077	
10.758	1.588793774	
10.76	1.517894255	
10.762	1.559789425	
10.764	1.608130007	
10.766	1.127946899	
10.768	0.934584573	
10.77	1.318086519	
10.772	1.044156558	
10.774	1.388986038	
10.776	1.843387503	
10.778	1.566234836	
10.78	1.079606317	
10.782	1.192401007	
10.784	1.59201648	
10.786	1.807937743	
10.788	1.569457542	
10.79	1.173064775	
10.792	1.553344015	
10.794	1.14083772	
10.796	1.295527581	
10.798	1.778933394	
10.8	1.811160449	
10.802	1.160173953	
10.804	1.350313573	
10.806	1.952959487	
10.808	1.865946441	
10.81	1.318086519	
10.812	1.382540627	
10.814	1.869169146	
10.816	1.849832914	
10.818	1.343868162	
10.82	1.195623713	
10.822	1.775710689	
10.824	1.952959487	
10.826	1.585571069	
10.828	1.237518883	
10.83	1.430881209	
10.832	1.975518425	
10.834	1.71125658	
10.836	1.269745937	
10.838	1.334200046	
10.84	1.85950103	
10.842	2.01419089	
10.844	1.698365759	
10.846	1.272968643	
10.848	1.405099565	
10.85	1.956182193	
10.852	1.379317922	
10.854	1.376095216	
10.856	1.923955138	
10.858	1.985186542	
10.86	1.47922179	
10.862	2.030304417	
10.864	1.769265278	
10.866	1.376095216	
10.868	1.469553674	
10.87	1.981963836	
10.872	1.237518883	
10.874	1.485667201	
10.876	1.97229572	
10.878	1.836942092	
10.88	1.305195697	
10.882	1.933623255	
10.884	1.988409247	
10.886	1.453440146	
10.888	1.240741588	
10.89	1.627466239	
10.892	1.840164797	
10.894	1.298750286	
10.896	1.237518883	
10.898	1.582348363	
10.9	1.843387503	
10.902	1.778933394	
10.904	1.337422751	
10.906	1.105387961	
10.908	1.421213092	
10.91	1.804715038	
10.912	1.276191348	
10.914	1.563012131	
10.916	1.985186542	
10.918	1.82405127	
10.92	1.308418402	
10.922	1.47922179	
10.924	1.508226139	
10.926	1.969073014	
10.928	2.036749828	
10.93	1.575902953	
10.932	1.32453193	
10.934	1.71125658	
10.936	2.16243534	
10.938	1.998077363	
10.94	1.417990387	
10.942	1.446994736	
10.944	1.411544976	
10.946	1.907841611	
10.948	2.04964065	
10.95	1.749929046	
10.952	1.405099565	
10.954	1.659693294	
10.956	2.08509041	
10.958	1.962627604	
10.96	1.446994736	
10.962	1.340645457	
10.964	1.475999084	
10.966	2.01419089	
10.968	2.04964065	
10.97	1.559789425	
10.972	1.495335317	
10.974	1.891728084	
10.976	2.265561913	
10.978	2.004522774	
10.98	1.566234836	
10.982	1.463108263	
10.984	1.695143053	
10.986	2.184994278	
10.988	2.08509041	
10.99	1.608130007	
10.992	1.672584115	
10.994	1.569457542	
10.996	1.911064317	
10.998	2.246225681	
11	2.033527123	
11.002	2.078644999	
11.004	2.178548867	
11.006	2.736076905	
11.008	2.913325704	
11.01	2.504042115	
11.012	3.142137789	
11.014	2.929439231	
11.016	3.219482719	
11.018	3.219482719	
11.02	3.219482719	
11.022	2.678068208	
11.024	2.861762417	
11.026	3.219482719	
11.028	3.219482719	
11.03	2.790862898	
11.032	2.349352255	
11.034	2.294566262	
11.036	2.758635843	
11.038	2.806976425	
11.04	2.297788968	
11.042	1.250409705	
11.044	1.51467155	
11.046	1.804715038	
11.048	1.563012131	
11.05	0.963588922	
11.052	0.045117876	
11.054	0.045117876	
11.056	0.538191806	
11.058	0.454401465	
11.06	0.045117876	
11.062	0.045117876	
11.064	0.496296635	
11.066	0.673545434	
11.068	0.261039139	
11.07	0.045117876	
11.072	1.804715038	
11.074	2.120540169	
11.076	2.54271458	
11.078	2.468592355	
11.08	1.981963836	
11.082	1.956182193	
11.084	2.491151293	
11.086	2.552382696	
11.088	2.078644999	
11.09	1.814383154	
11.092	1.579125658	
11.094	1.891728084	
11.096	2.114094759	
11.098	1.778933394	
11.1	1.263300526	
11.102	1.708033875	
11.104	2.16243534	
11.106	2.120540169	
11.108	1.640357061	
11.11	1.546898604	
11.112	1.276191348	
11.114	1.740260929	
11.116	1.865946441	
11.118	1.446994736	
11.12	1.118278782	
11.122	1.511448844	
11.124	1.898173495	
11.126	1.650025177	
11.128	1.179510185	
11.13	1.224628061	
11.132	1.44377203	
11.134	1.791824216	
11.136	1.604907301	
11.138	1.160173953	
11.14	1.173064775	
11.142	1.74670634	
11.144	1.817605859	
11.146	1.414767681	
11.148	1.185955596	
11.15	1.398654154	
11.152	1.475999084	
11.154	1.878837263	
11.156	1.63391165	
11.158	1.189178302	
11.16	1.266523232	
11.162	1.708033875	
11.164	2.004522774	
11.166	1.582348363	
11.168	1.21818265	
11.17	1.3664271	
11.172	1.408322271	
11.174	1.862723735	
11.176	1.743483635	
11.178	1.266523232	
11.18	1.295527581	
11.182	1.759597162	
11.184	1.940068666	
11.186	1.524339666	
11.188	1.221405356	
11.19	1.434103914	
11.192	1.534007782	
11.194	1.959404898	
11.196	1.701588464	
11.198	1.250409705	
11.2	1.340645457	
11.202	1.920732433	
11.204	1.943291371	
11.206	1.482444495	
11.208	1.308418402	
11.21	1.617798123	
11.212	1.785378805	
11.214	2.088313115	
11.216	1.769265278	
11.218	1.369649805	
11.22	1.508226139	
11.222	2.068976883	
11.224	1.788601511	
11.226	1.495335317	
11.228	1.546898604	
11.23	2.027081712	
11.232	2.010968185	
11.234	1.923955138	
11.236	1.411544976	
11.238	1.340645457	
11.24	1.737038224	
11.242	2.023859007	
11.244	1.517894255	
11.246	1.421213092	
11.248	1.814383154	
11.25	2.088313115	
11.252	1.450217441	
11.254	1.978741131	
11.256	1.956182193	
11.258	1.459885557	
11.26	1.350313573	
11.262	1.97229572	
11.264	1.849832914	
11.266	1.305195697	
11.268	1.369649805	
11.27	1.856278325	
11.272	1.279414054	
11.274	1.714479286	
11.276	2.00774548	
11.278	1.737038224	
11.28	1.276191348	
11.282	2.075422293	
11.284	1.791824216	
11.286	1.340645457	
11.288	1.456662852	
11.29	1.949736782	
11.292	1.501780728	
11.294	1.553344015	
11.296	2.062531472	
11.298	2.075422293	
11.3	1.604907301	
11.302	1.440549325	
11.304	1.878837263	
11.306	2.123762875	
11.308	1.814383154	
11.31	1.488889906	
11.312	1.627466239	
11.314	2.117317464	
11.316	2.059308766	
11.318	1.517894255	
11.32	1.385763333	
11.322	1.337422751	
11.324	1.688697642	
11.326	1.991631952	
11.328	1.698365759	
11.33	1.282636759	
11.332	1.517894255	
11.334	2.010968185	
11.336	1.940068666	
11.338	1.427658503	
11.34	1.340645457	
11.342	1.318086519	
11.344	1.801492332	
11.346	2.010968185	
11.348	1.630688945	
11.35	1.247186999	
11.352	1.63391165	
11.354	2.010968185	
11.356	1.801492332	
11.358	1.321309224	
11.36	1.3664271	
11.362	1.40187686	
11.364	1.991631952	
11.366	2.043195239	
11.368	1.595239185	
11.37	1.347090867	
11.372	1.791824216	
11.374	2.056086061	
11.376	1.788601511	
11.378	1.44377203	
11.38	1.517894255	
11.382	1.456662852	
11.384	2.033527123	
11.386	2.065754177	
11.388	1.563012131	
11.39	1.421213092	
11.392	1.392208743	
11.394	1.901396201	
11.396	2.036749828	
11.398	1.643579767	
11.4	1.353536278	
11.402	1.598461891	
11.404	2.04964065	
11.406	1.988409247	
11.408	1.492112612	
11.41	1.450217441	
11.412	1.498558022	
11.414	2.010968185	
11.416	2.130208286	
11.418	1.753151751	
11.42	1.453440146	
11.422	2.165658045	
11.424	2.059308766	
11.426	1.588793774	
11.428	1.569457542	
11.43	1.978741131	
11.432	2.01419089	
11.434	2.194662394	
11.436	1.785378805	
11.438	1.459885557	
11.44	1.708033875	
11.442	2.265561913	
11.444	1.988409247	
11.446	1.51467155	
11.448	1.604907301	
11.45	2.123762875	
11.452	2.175326162	
11.454	2.165658045	
11.456	1.627466239	
11.458	1.537230488	
11.46	1.956182193	
11.462	2.355797665	
11.464	2.00774548	
11.466	1.604907301	
11.468	1.730592813	
11.47	2.246225681	
11.472	2.320347906	
11.474	2.236557565	
11.476	1.659693294	
11.478	1.608130007	
11.48	2.039972534	
11.482	3.219482719	
11.484	3.039011215	
11.486	2.981002518	
11.488	3.219482719	
11.49	3.219482719	
11.492	3.206591897	
11.494	2.781194781	
11.496	2.478260472	
11.498	2.678068208	
11.5	3.116356146	
11.502	2.236557565	
11.504	1.762819867	
11.506	1.814383154	
11.508	2.3171252	
11.51	2.462146944	
11.512	2.46536965	
11.514	1.981963836	
11.516	1.749929046	
11.518	2.114094759	
11.52	2.500819409	
11.522	0.580086976	
11.524	0.212698558	
11.526	0.370611124	
11.528	0.825012589	
11.53	0.767003891	
11.532	0.090235752	
11.534	0.522078279	
11.536	0.960366217	
11.538	0.634872969	
11.54	0.177248798	
11.542	1.563012131	
11.544	1.856278325	
11.546	1.485667201	
11.548	1.073160906	
11.55	1.227850767	
11.552	1.853055619	
11.554	1.814383154	
11.556	1.285859464	
11.558	1.227850767	
11.56	1.791824216	
11.562	1.827273976	
11.564	2.297788968	
11.566	2.62005951	
11.568	2.172103456	
11.57	1.814383154	
11.572	1.640357061	
11.574	2.143099107	
11.576	2.165658045	
11.578	1.640357061	
11.58	1.505003433	
11.582	1.405099565	
11.584	1.459885557	
11.586	1.962627604	
11.588	2.052863355	
11.59	1.582348363	
11.592	1.311641108	
11.594	1.840164797	
11.596	1.988409247	
11.598	1.604907301	
11.6	1.314863813	
11.602	2.336461433	
11.604	2.12698558	
11.606	1.553344015	
11.608	1.588793774	
11.61	2.068976883	
11.612	1.682252232	
11.614	1.208514534	
11.616	1.318086519	
11.618	1.878837263	
11.62	1.943291371	
11.622	1.189178302	
11.624	1.32453193	
11.626	1.882059968	
11.628	1.872391852	
11.63	1.40187686	
11.632	1.59201648	
11.634	2.120540169	
11.636	2.101203937	
11.638	1.595239185	
11.64	1.469553674	
11.642	1.59201648	
11.644	2.08509041	
11.646	2.020636301	
11.648	1.582348363	
11.65	1.482444495	
11.652	1.872391852	
11.654	1.44377203	
11.656	1.505003433	
11.658	1.998077363	
11.66	2.062531472	
11.662	1.472776379	
11.664	2.043195239	
11.666	2.033527123	
11.668	1.527562371	
11.67	1.347090867	
11.672	1.414767681	
11.674	1.946514076	
11.676	1.965850309	
11.678	1.450217441	
11.68	1.237518883	
11.682	1.256855116	
11.684	1.675806821	
11.686	1.911064317	
11.688	1.643579767	
11.69	1.256855116	
11.692	2.001300069	
11.694	1.675806821	
11.696	1.305195697	
11.698	1.446994736	
11.7	2.010968185	
11.702	2.039972534	
11.704	1.766042573	
11.706	1.250409705	
11.708	1.298750286	
11.71	1.840164797	
11.712	2.091535821	
11.714	1.807937743	
11.716	1.32453193	
11.718	1.388986038	
11.72	1.914287022	
11.722	1.943291371	
11.724	1.943291371	
11.726	1.424435798	
11.728	1.321309224	
11.73	1.749929046	
11.732	1.882059968	
11.734	1.978741131	
11.736	1.495335317	
11.738	1.318086519	
11.74	1.762819867	
11.742	1.363204395	
11.744	1.424435798	
11.746	2.004522774	
11.748	1.962627604	
11.75	1.408322271	
11.752	1.372872511	
11.754	1.798269627	
11.756	2.059308766	
11.758	1.82405127	
11.76	1.363204395	
11.762	1.363204395	
11.764	1.727370108	
11.766	2.075422293	
11.768	1.840164797	
11.77	1.376095216	
11.772	1.353536278	
11.774	1.698365759	
11.776	2.104426642	
11.778	1.904618906	
11.78	1.427658503	
11.782	1.392208743	
11.784	1.679029526	
11.786	2.094758526	
11.788	2.01419089	
11.79	1.498558022	
11.792	1.379317922	
11.794	1.682252232	
11.796	2.062531472	
11.798	1.904618906	
11.8	1.379317922	
11.802	1.421213092	
11.804	1.588793774	
11.806	2.078644999	
11.808	2.056086061	
11.81	1.530785077	
11.812	1.3664271	
11.814	1.569457542	
11.816	2.101203937	
11.818	2.01419089	
11.82	1.505003433	
11.822	1.363204395	
11.824	1.540453193	
11.826	2.04964065	
11.828	2.004522774	
11.83	1.469553674	
11.832	1.340645457	
11.834	1.417990387	
11.836	1.956182193	
11.838	2.081867704	
11.84	1.608130007	
11.842	1.379317922	
11.844	1.550121309	
11.846	2.00774548	
11.848	1.956182193	
11.85	1.469553674	
11.852	1.459885557	
11.854	1.424435798	
11.856	1.923955138	
11.858	2.065754177	
11.86	1.662915999	
11.862	1.543675898	
11.864	1.356758984	
11.866	1.688697642	
11.868	2.101203937	
11.87	1.885282673	
11.872	1.878837263	
11.874	1.614575418	
11.876	1.85950103	
11.878	2.375133898	
11.88	2.38802472	
11.882	3.219482719	
11.884	3.219482719	
11.886	3.219482719	
11.888	3.219482719	
11.89	3.219482719	
11.892	2.42991989	
11.894	1.898173495	
11.896	1.717701991	
11.898	2.039972534	
11.9	2.355797665	
11.902	2.184994278	
11.904	1.762819867	
11.906	1.459885557	
11.908	1.659693294	
11.91	2.146321813	
11.912	1.804715038	
11.914	1.579125658	
11.916	1.09894255	
11.918	1.124724193	
11.92	1.582348363	
11.922	1.679029526	
11.924	1.672584115	
11.926	1.192401007	
11.928	1.111833371	
11.93	1.453440146	
11.932	1.646802472	
11.934	1.569457542	
11.936	1.092497139	
11.938	0.947475395	
11.94	1.318086519	
11.942	1.527562371	
11.944	1.788601511	
11.946	1.424435798	
11.948	1.034488441	
11.95	1.163396658	
11.952	1.282636759	
11.954	1.688697642	
11.956	1.59201648	
11.958	1.037711147	
11.96	1.002261387	
11.962	1.144060426	
11.964	1.63391165	
11.966	1.740260929	
11.968	1.32453193	
11.97	1.095719844	
11.972	1.160173953	
11.974	1.488889906	
11.976	1.840164797	
11.978	1.611352712	
11.98	1.156951247	
11.982	1.111833371	
11.984	1.276191348	
11.986	1.743483635	
11.988	1.74670634	
11.99	1.247186999	
11.992	1.247186999	
11.994	1.205291829	
11.996	1.682252232	
11.998	1.865946441	
12	1.527562371	
12.002	1.385763333	
12.004	1.147283131	
12.006	1.424435798	
12.008	1.85950103	
12.01	1.798269627	
12.012	1.572680247	
12.014	1.185955596	
12.016	1.327754635	
12.018	1.833719387	
12.02	1.872391852	
12.022	1.659693294	
12.024	1.224628061	
12.026	1.3664271	
12.028	1.878837263	
12.03	1.901396201	
12.032	1.849832914	
12.034	1.334200046	
12.036	1.282636759	
12.038	1.71125658	
12.04	1.991631952	
12.042	1.55656672	
12.044	1.279414054	
12.046	1.614575418	
12.048	2.104426642	
12.05	1.952959487	
12.052	1.82405127	
12.054	1.356758984	
12.056	1.434103914	
12.058	1.952959487	
12.06	1.952959487	
12.062	2.056086061	
12.064	1.679029526	
12.066	1.337422751	
12.068	1.517894255	
12.07	2.056086061	
12.072	2.184994278	
12.074	2.059308766	
12.076	1.505003433	
12.078	1.408322271	
12.08	1.865946441	
12.082	2.062531472	
12.084	1.708033875	
12.086	1.414767681	
12.088	1.646802472	
12.09	2.149544518	
12.092	2.20433051	
12.094	1.969073014	
12.096	1.440549325	
12.098	1.421213092	
12.1	1.920732433	
12.102	2.136653696	
12.104	1.698365759	
12.106	1.430881209	
12.108	1.698365759	
12.11	2.210775921	
12.112	2.184994278	
12.114	1.749929046	
12.116	1.453440146	
12.118	1.66936141	
12.12	2.149544518	
12.122	2.903657588	
12.124	2.468592355	
12.126	2.565273518	
12.128	3.132469673	
12.13	3.219482719	
12.132	3.219482719	
12.134	2.806976425	
12.136	2.471815061	
12.138	2.710295262	
12.14	3.132469673	
12.142	2.703849851	
12.144	2.201107805	
12.146	2.172103456	
12.148	2.62005951	
12.15	2.713517967	
12.152	2.745745022	
12.154	2.38802472	
12.156	2.16243534	
12.158	2.513710231	
12.16	2.88754406	
12.162	1.927177844	
12.164	1.427658503	
12.166	1.379317922	
12.168	1.759597162	
12.17	1.743483635	
12.172	0.099903868	
12.174	0.045117876	
12.176	0.045117876	
12.178	0.048340581	
12.18	0.177248798	
12.182	0.096681163	
12.184	0.045117876	
12.186	0.045117876	
12.188	0.186916915	
12.19	0.235257496	
12.192	0.921693751	
12.194	0.592977798	
12.196	0.541414511	
12.198	0.992593271	
12.2	1.376095216	
12.202	3.219482719	
12.204	2.926216526	
12.206	3.171142138	
12.208	3.219482719	
12.21	3.219482719	
12.212	3.219482719	
12.214	3.055124743	
12.216	2.935884642	
12.218	3.219482719	
12.22	3.219482719	
12.222	3.219482719	
12.224	2.713517967	
12.226	2.713517967	
12.228	3.132469673	
12.23	3.196923781	
12.232	1.756374456	
12.234	1.182732891	
12.236	0.841126116	
12.238	1.018374914	
12.24	1.327754635	
12.242	0.045117876	
12.244	0.045117876	
12.246	0.045117876	
12.248	0.045117876	
12.25	0.157912566	
12.252	0.360943008	
12.254	0.045117876	
12.256	0.045117876	
12.258	0.180471504	
12.26	0.615536736	
12.262	2.65550927	
12.264	2.272007324	
12.266	2.607168688	
12.268	3.032565805	
12.27	2.88754406	
12.272	3.080906386	
12.274	2.65550927	
12.276	2.813421836	
12.278	3.219482719	
12.28	3.219482719	
12.282	2.742522316	
12.284	2.752190433	
12.286	3.222705425	
12.288	3.219482719	
12.29	3.116356146	
12.292	1.505003433	
12.294	1.234296178	
12.296	1.456662852	
12.298	1.891728084	
12.3	1.775710689	
12.302	0.045117876	
12.304	0.048340581	
12.306	0.618759442	
12.308	0.483405814	
12.31	0.045117876	
12.312	0.045117876	
12.314	0.045117876	
12.316	0.045117876	
12.318	0.174026093	
12.32	0.045117876	
12.322	0.045117876	
12.324	0.045117876	
12.326	0.045117876	
12.328	0.383501946	
12.33	0.399615473	
12.332	1.3664271	
12.334	1.356758984	
12.336	1.888505379	
12.338	2.1978851	
12.34	2.062531472	
12.342	3.219482719	
12.344	2.993893339	
12.346	3.155028611	
12.348	3.219482719	
12.35	3.219482719	
12.352	2.803753719	
12.354	2.777972076	
12.356	3.219482719	
12.358	3.219482719	
12.36	2.926216526	
12.362	1.93684596	
12.364	1.762819867	
12.366	2.210775921	
12.368	2.581387045	
12.37	2.359020371	
12.372	0.667100023	
12.374	0.860462348	
12.376	1.327754635	
12.378	1.28908217	
12.38	0.808899062	
12.382	0.899134813	
12.384	0.815344472	
12.386	1.221405356	
12.388	1.427658503	
12.39	1.108610666	
12.392	1.21173724	
12.394	1.624243534	
12.396	2.12698558	
12.398	2.046417945	
12.4	1.601684596	
12.402	2.884321355	
12.404	2.926216526	
12.406	3.219482719	
12.408	3.219482719	
12.41	3.196923781	
12.412	2.971334401	
12.414	3.219482719	
12.416	3.219482719	
12.418	3.219482719	
12.42	2.868207828	
12.422	2.259116503	
12.424	2.371911192	
12.426	2.694181735	
12.428	2.423474479	
12.43	1.814383154	
12.432	0.499519341	
12.434	0.982925154	
12.436	0.98614786	
12.438	0.473737697	
12.44	0.11279469	
12.442	0.045117876	
12.444	0.045117876	
12.446	0.206253147	
12.448	0.045117876	
12.45	0.045117876	
12.452	0.98614786	
12.454	1.517894255	
12.456	1.463108263	
12.458	1.015152209	
12.46	1.047379263	
12.462	2.806976425	
12.464	3.219482719	
12.466	3.219482719	
12.468	2.968111696	
12.47	2.755413138	
12.472	3.03578851	
12.474	3.219482719	
12.476	2.781194781	
12.478	2.50726482	
12.48	2.668400092	
12.482	1.875614557	
12.484	2.114094759	
12.486	1.730592813	
12.488	1.434103914	
12.49	1.611352712	
12.492	0.373833829	
12.494	0.045117876	
12.496	0.045117876	
12.498	0.045117876	
12.5	0.286820783	
