

 begin log for calibration v12021-02-173.219482719157702
0.41895170519569697
0.6187594415197984
3.2259281300068663
1.8304966811627372
1.076383611810483
2.5266010528725107
0.41895170519569697
2.697404440375372
3.2259281300068663
0.41895170519569697
1.3889860379949646
3.2259281300068663
0.47696040283817803
0.6090913252460517
1.517894254978256
1.2278507667658503
2.603945983062485
3.2259281300068663
0.4737376974135958
0.4221744106202792
0.5575280384527351
2.5137102311741817
3.064792858777752
0.4511787594415198
3.219482719157702
0.8572396429388875
0.4221744106202792
0.6413183794918745
3.2227054245822844
3.2259281300068663
0.41895170519569697
0.4221744106202792
0.42539711604486147
0.41895170519569697
0.4221744106202792
0.4221744106202792
3.2259281300068663
3.219482719157702
2.668400091554131
0.9603662165255207
0.4221744106202792
0.41895170519569697
0.41895170519569697
0.4221744106202792
1.3503135728999769
2.4428107118333715
3.2259281300068663
1.2890821698329138
1.2955275806820783
3.219482719157702
3.2259281300068663
1.4179903868162052
0.45440146486610206
0.41895170519569697
0.4221744106202792
0.4415106431677729
1.2020691233691918
2.9133257038223848
3.2259281300068663
3.2259281300068663
0.4479560540169375
0.6155367360952162
0.6477637903410391
1.0731609063859004
1.9916319523918515
3.219482719157702
3.2227054245822844
3.2259281300068663
3.2259281300068663
3.2259281300068663
3.2259281300068663
3.0809063859006636
2.565273517967498
0.4221744106202792
0.42539711604486147
0.42539711604486147
0.42539711604486147
0.5510826276035705
0.7057724879835202
1.1472831311512932
1.359981689173724
1.3470908674753947
1.3180865186541542
1.0183749141680019
1.3374227512016479
1.6661387045090408
1.237518883039597
1.5630121309224079
1.5855710688944837
1.4469947356374455
1.4115449759670404
0.7798947127489128
0.7315541313801784
0.6413183794918745
0.45440146486610206
0.4221744106202792
3.2259281300068663
2.4428107118333715
1.1505058365758754
0.6445410849164569
0.42539711604486147
0.42539711604486147
0.4221744106202792
0.41895170519569697
1.7757106889448386
0.4221744106202792
0.41895170519569697
0.4479560540169375
0.9829251544975967
1.9561821927214464
3.2259281300068663
3.2259281300068663
1.746706340123598
0.42539711604486147
0.8894666971847104
0.4221744106202792
0.4705149919890135
1.9207324330510414
3.1131334401464863
3.2259281300068663
3.2259281300068663
1.3019729915312426
0.4221744106202792
0.4640695811398489
2.429919890135042
3.2259281300068663
3.219482719157702
0.7315541313801784
0.4221744106202792
2.971334401464866
3.2259281300068663
0.9861478599221789
0.4221744106202792
1.292304875257496
3.2259281300068663
3.219482719157702
0.42539711604486147
0.43828793774319064
3.2259281300068663
3.219482719157702
0.42539711604486147
0.48340581368734264
3.2259281300068663
2.5201556420233464
0.4221744106202792
1.8949507896543831
0.4221744106202792
3.2259281300068663
2.2365575646601052
0.4221744106202792
2.597500572213321
3.2227054245822844
0.4221744106202792
2.710295262073701
3.216260013733119
0.4221744106202792
3.2259281300068663
1.4469947356374455
0.4221744106202792
3.2259281300068663
0.42539711604486147
2.3364614328221562
2.710295262073701
0.4221744106202792
3.2259281300068663
0.42539711604486147
2.7425223163195236
1.6049073014419775
1.098942549782559
3.219482719157702
0.4221744106202792
3.2259281300068663
0.4221744106202792
3.2259281300068663
0.42539711604486147
3.2259281300068663
0.42539711604486147
3.219482719157702
0.42539711604486147
3.13246967269398
0.42539711604486147
3.2259281300068663
0.4221744106202792
3.2259281300068663
0.4221744106202792
3.2259281300068663
0.4221744106202792
0.41895170519569697
2.3944701304646374
2.1205401693751433
0.7766720073243305
3.2259281300068663
0.41895170519569697
3.0035614557106887
1.994854657816434
0.5962005035477226
3.2259281300068663
0.41895170519569697
2.1688807507438774
2.8972121766994734
0.4221744106202792
2.146321812771801
3.048679331654841
0.4221744106202792
2.0367498283360037
3.206591897459373
0.4221744106202792
1.4566628519111924
3.2259281300068663
1.1762874799725338
0.42539711604486147
3.2259281300068663
2.359020370794232
0.4221744106202792
1.8401647974364843
3.2259281300068663
0.7347768368047608
0.42539711604486147
2.1688807507438774
3.2259281300068663
1.3760952162966353
0.4479560540169375
0.42539711604486147
0.41895170519569697
0.4221744106202792
2.1882169832913707
3.2259281300068663
2.3493522545204852
0.4318425268940261
0.42539711604486147
3.206591897459373
3.2259281300068663
2.1946623941405354
0.4221744106202792
0.42539711604486147
1.3051956969558252
3.2259281300068663
3.2259281300068663
3.13246967269398
1.8659464408331423
0.4221744106202792
0.42539711604486147
0.702549782558938
2.4492561226825362
3.2259281300068663
3.2259281300068663
3.2259281300068663
3.2259281300068663
2.2236667429617762
0.48340581368734264
0.41895170519569697
0.42539711604486147
0.42539711604486147
0.43828793774319064
0.49629663538567176
1.3922087434195467
0.4221744106202792
0.4221744106202792
2.7392996108949417
2.8649851224536507
2.3944701304646374
2.107649347676814
1.430881208514534
1.4631082627603569
2.268784618905928
1.2858594644083312
1.292304875257496
1.282636758983749
3.216260013733119
3.219482719157702
3.216260013733119
3.219482719157702
3.219482719157702
3.216260013733119
3.2130373083085373
3.216260013733119
3.216260013733119
3.2130373083085373
3.2130373083085373
3.2130373083085373
3.2130373083085373
3.20336919203479
2.204330510414282
0.679990844586862
0.4672922865644312
0.4672922865644312
0.4640695811398489
0.4608468757152666
0.4608468757152666
0.5317463950560769
0.9506981002517738
2.0560860608834974
2.703849851224536
3.219482719157702
3.216260013733119
3.219482719157702
2.001300068665598
0.8830212863355458
0.4672922865644312
0.4608468757152666
0.5414145113298238
1.930400549324788
3.219482719157702
3.219482719157702
2.8359807736324103
0.8121217669947356
0.4608468757152666
0.5091874570840009
2.1946623941405354
3.2130373083085373
0.4608468757152666
3.219482719157702
0.4705149919890135
0.4608468757152666
2.346129549095903
3.219482719157702
2.0689768825818264
0.4672922865644312
0.5349691004806592
3.0712382696269165
3.216260013733119
0.4705149919890135
2.268784618905928
1.1827328908216983
1.5146715495536736
2.6587319752803844
2.552382696269169
2.2945662623025864
0.4640695811398489
2.152767223620966
3.219482719157702
0.4672922865644312
1.5759029526207369
3.219482719157702
0.52207827878233
1.0119295033188374
3.219482719157702
0.4705149919890135
1.5146715495536736
3.216260013733119
0.4672922865644312
2.942330052643625
1.714479285877775
0.4898512245365072
3.216260013733119
0.4672922865644312
2.6812909132524605
1.4953353170061798
0.544637216754406
3.219482719157702
0.4640695811398489
3.200146486610208
0.5414145113298238
2.42669718471046
1.6145754177157243
0.8217898832684825
3.219482719157702
0.4640695811398489
3.219482719157702
0.4640695811398489
3.216260013733119
0.7895628290226596
1.9561821927214464
2.3557976653696495
1.4276585030899518
2.678068207827878
0.7637811856260013
3.0035614557106887
0.7347768368047608
3.219482719157702
0.4640695811398489
3.2130373083085373
1.102165255207141
1.134392309452964
2.871430533302815
0.4672922865644312
3.219482719157702
0.4640695811398489
1.179510185397116
3.219482719157702
0.4640695811398489
3.216260013733119
1.9175097276264592
0.4737376974135958
3.219482719157702
0.5575280384527351
0.895912108033875
3.219482719157702
0.5543053330281529
0.7734493018997483
3.219482719157702
0.5414145113298238
0.4705149919890135
3.2130373083085373
2.6393957427328907
0.4640695811398489
1.6113527122911422
3.219482719157702
1.214959945067521
0.4705149919890135
3.216260013733119
2.719963378347448
0.4640695811398489
0.5478599221789884
3.219482719157702
2.7650812542915997
0.5188555733577477
0.4672922865644312
2.0689768825818264
3.219482719157702
1.7982696269169145
0.4640695811398489
1.0377111467154954
3.216260013733119
3.219482719157702
2.0045227740901805
0.7670038910505836
0.5091874570840009
0.4672922865644312
0.8830212863355458
3.216260013733119
3.219482719157702
2.4428107118333715
0.5253009842069123
0.4608468757152666
0.4672922865644312
0.6638773174639505
2.133430991073472
3.209814602883955
3.216260013733119
3.219482719157702
2.668400091554131
2.207553215838865
3.216260013733119
3.219482719157702
3.219482719157702
2.2494483863584347
1.9529594872968643
0.5607507438773174
0.4672922865644312
0.4640695811398489
0.4672922865644312
0.4705149919890135
0.5091874570840009
1.0087067978942548
1.282636758983749
2.2494483863584347
2.5394918745708397
3.2130373083085373
3.2130373083085373
3.2130373083085373
3.216260013733119
3.216260013733119
3.216260013733119
3.216260013733119
3.219482719157702
3.219482719157702
3.219482719157702
3.219482719157702
3.219482719157702
3.219482719157702
3.209814602883955
0.47696040283817803
0.4672922865644312
0.4640695811398489
0.4640695811398489
0.4640695811398489
0.4866285191119249
0.4640695811398489
0.4608468757152666
0.4640695811398489
0.48018310826276034
0.47696040283817803
1.0796063172350652
1.5726802471961545
2.278452735179675
2.826312657358663
3.1292469672693977
3.219482719157702
3.219482719157702
3.219482719157702
3.219482719157702
2.7328542000457765
1.2181826504921034
0.895912108033875
0.4640695811398489
0.4608468757152666
0.4608468757152666
0.4608468757152666
0.4608468757152666
1.098942549782559
3.2259281300068663
3.2227054245822844
3.2259281300068663
3.2259281300068663
3.2259281300068663
0.4221744106202792
0.4221744106202792
0.4221744106202792
0.4221744106202792
0.4221744106202792
0.42539711604486147
0.4221744106202792
0.4221744106202792
0.4221744106202792
0.4221744106202792
0.4221744106202792
0.4221744106202792
0.4221744106202792
0.4221744106202792
0.4221744106202792
0.41895170519569697
0.41895170519569697
0.4221744106202792
0.4350652323186084
0.589755092698558
0.5027420462348363
0.544637216754406
0.567196154726482
0.5962005035477226
0.6219821469443808
0.6509864957656213
3.2259281300068663
3.2259281300068663
3.2259281300068663
3.2259281300068663
3.2259281300068663
3.2259281300068663
3.2259281300068663
3.2259281300068663
3.2259281300068663
3.2259281300068663
3.2259281300068663
3.2259281300068663
3.2259281300068663
3.2259281300068663
3.2259281300068663
3.2259281300068663
3.145360494392309
3.216260013733119
3.209814602883955
3.148583199816892
3.106688029297322
3.0680155642023346
3.0390112153810938
3.0196749828336005
2.9777798123140307
2.9455527580682075
2.922993820096132
2.9004348821240558
2.8746532387273973
2.8488715953307393
2.823089951934081
2.7973083085374224
2.7715266651407644
2.745745021744106
2.7231860837720303
2.7006271457999538
2.6748455024032958
2.6522865644312197
2.632950331883726
2.607168688487068
2.584609750514992
2.555605401693751
2.5684962233920805
2.529823758297093
2.507264820325017
2.381579308766308
2.458924238956283
2.417029068436713
2.42669718471046
2.4138063630121307
2.339684138246738
2.278452735179675
1.543675898374914
0.4866285191119249
0.7670038910505836
2.4557015335317005
2.246225680933852
2.391247425040055
2.346129549095903
1.3470908674753947
1.102165255207141
0.4221744106202792
3.1260242618448157
2.9487754634927903
3.0680155642023346
2.645841153582055
1.8047150377660792
0.4576241702906843
0.4060608834973678
0.41572899977111466
0.4608468757152666
0.40928358892195005
0.4060608834973678
0.41572899977111466
1.6500251773861294
0.49307392996108945
0.4866285191119249
0.5027420462348363
2.0786449988555735
0.8411261158159762
0.4737376974135958
2.291343556878004
3.2259281300068663
3.2227054245822844
3.2227054245822844
0.9635889219501029
0.6155367360952162
1.6661387045090408
0.6671000228885328
1.0409338521400777
1.4179903868162052
1.2504097047379261
2.665177386129549
2.768303959716182
2.9197711146715495
2.7844174868390934
0.8572396429388875
0.4415106431677729
1.0022613870450903
1.2246280613412681
2.703849851224536
3.2227054245822844
1.0957198443579768
0.4447333485923552
0.4479560540169375
1.1988464179446097
2.574941634241245
3.2259281300068663
3.2259281300068663
3.2227054245822844
0.4479560540169375
3.2227054245822844
3.2227054245822844
3.2227054245822844
3.216260013733119
0.42539711604486147
0.41250629434653235
0.40928358892195005
3.216260013733119
3.216260013733119
2.265561913481346
1.6532478828107118
1.7241474021515222
3.216260013733119
3.216260013733119
3.216260013733119
3.216260013733119
3.216260013733119
3.216260013733119
3.219482719157702
3.219482719157702
3.219482719157702
3.219482719157702
3.20336919203479
3.1518059052414737
3.1163561455710687
3.084129091325246
3.0583474479285875
2.9906706340123597
2.9552208743419546
2.9197711146715495
0.39961547264820324
0.40283817807278555
0.39961547264820324
0.39961547264820324
0.39961547264820324
0.39961547264820324
0.39639276722362093
3.2259281300068663
0.9990386816205081
3.0132295719844358
0.4060608834973678
1.3793179217212175
3.206591897459373
3.2227054245822844
0.4511787594415198
1.6854749370565345
1.7209246967269396
3.2259281300068663
0.7057724879835202
3.2227054245822844
0.4350652323186084
0.873353170061799
3.206591897459373
1.4824444953078508
1.3535362783245595
0.4350652323186084
3.2259281300068663
1.021597619592584
1.5823483634699016
3.216260013733119
0.39961547264820324
2.9648889906157017
2.1398764019226366
0.4511787594415198
3.2227054245822844
1.1311696040283816
0.4898512245365072
3.216260013733119
3.2259281300068663
0.7895628290226596
3.2227054245822844
0.9474753948271916
2.143099107347219
3.206591897459373
0.45440146486610206
3.2227054245822844
0.5865323872739757
3.187255664911879
1.2085145342183565
3.2227054245822844
0.4286198214694438
3.2227054245822844
3.219482719157702
0.4447333485923552
0.8411261158159762
3.2259281300068663
1.9368459601739527
0.43828793774319064
3.200146486610208
1.2794140535591667

 begin log for calibration v12021-02-170.8314579995422293
3.206591897459373
3.219482719157702
0.4511787594415198
3.216260013733119
0.47696040283817803
1.553344014648661
3.219482719157702
0.4640695811398489
0.8572396429388875
3.216260013733119
0.47696040283817803
3.2130373083085373
2.1173174639505605
0.41572899977111466
2.146321812771801
1.5726802471961545
0.41572899977111466
0.7927855344472419
2.1882169832913707
1.4985580224307622
0.45440146486610206
0.4318425268940261
0.544637216754406
1.7789333943694208
1.430881208514534
0.7347768368047608
1.8562783245593957
3.2130373083085373
3.2130373083085373
3.219482719157702
2.146321812771801
0.702549782558938
3.2130373083085373
1.2568551155870908
2.719963378347448
1.2536324101625085
0.47696040283817803
0.4447333485923552
0.9055802243076219
1.2955275806820783
0.5253009842069123
1.7789333943694208
0.4608468757152666
0.6542092011902036
0.7251087205310139
2.565273517967498
3.2130373083085373
0.8443488212405584
0.4737376974135958
0.41572899977111466
3.2130373083085373
0.8185671778439001
0.4672922865644312
0.4479560540169375
0.41572899977111466
3.2130373083085373
3.2227054245822844
3.074460975051499
0.4221744106202792
0.41895170519569697
0.41895170519569697
3.2130373083085373
0.737999542229343
0.5381918059052415
0.6961043717097734
1.021597619592584
3.219482719157702
3.219482719157702
3.219482719157702
3.2227054245822844
0.4737376974135958
0.4737376974135958
0.4511787594415198
2.462146944380865
2.291343556878004
1.7628198672465094
3.219482719157702
0.4672922865644312
0.5285236896314945
0.4640695811398489
1.0377111467154954
1.098942549782559
0.6252048523689631
0.49629663538567176
0.42539711604486147
0.4221744106202792
0.41895170519569697
0.41572899977111466
0.4447333485923552
0.47696040283817803
0.4576241702906843
0.5253009842069123
0.6380956740672923
2.951998168917372
1.962627603570611
1.04415655756466
0.42539711604486147
0.4221744106202792
0.48018310826276034
0.47696040283817803
0.5317463950560769
1.5694575417715724
2.8746532387273973
3.219482719157702
0.52207827878233
2.291343556878004
3.167919432364385
3.219482719157702
3.2130373083085373
2.033527122911421
0.8411261158159762
0.41895170519569697
0.4737376974135958
1.9916319523918515
0.4511787594415198
1.098942549782559
3.2130373083085373
1.7305928130006865
0.4221744106202792
0.47696040283817803
1.7241474021515222
3.219482719157702
3.206591897459373
0.679990844586862
0.4479560540169375
0.9474753948271916
3.2227054245822844
1.9594048981460288
0.4286198214694438
1.5372304875257494
3.219482719157702
2.816644541084916
0.4318425268940261
0.5478599221789884
3.1131334401464863
3.187255664911879
0.42539711604486147
1.5468986037994965
0.47696040283817803
2.4653696498054476
3.209814602883955
0.5253009842069123
0.5478599221789884
3.219482719157702
0.9442526894026093
0.4705149919890135
3.219482719157702
1.0699382009613183
0.4737376974135958
3.219482719157702
0.5929777981231402
1.327754634927901
3.209814602883955
0.4286198214694438
2.868207827878233
1.9110643167772945
0.48340581368734264
3.219482719157702
0.4286198214694438
2.3848020141908903
2.1753261615930417
3.2130373083085373
0.6767681391622797
1.5726802471961545
2.597500572213321
1.3438681620508124
1.408322270542458
3.206591897459373
0.48018310826276034
3.209814602883955
0.48340581368734264
0.4866285191119249
3.2130373083085373
0.4898512245365072
3.209814602883955
0.48018310826276034
3.2130373083085373
0.5381918059052415
2.9552208743419546
1.9013962005035476
1.0409338521400777
2.6845136186770424
3.0100068665598534
0.42539711604486147
3.219482719157702
0.48018310826276034
3.200146486610208
1.6854749370565345
0.42539711604486147
3.216260013733119
0.4672922865644312
1.3793179217212175
3.051902037079423
0.4318425268940261
3.20336919203479
2.542714579995422
0.42539711604486147
3.206591897459373
2.2236667429617762
0.42539711604486147
3.2130373083085373
2.339684138246738
0.4221744106202792
2.707072556649119
3.0712382696269165
0.48340581368734264
0.5059647516594187
3.2130373083085373
2.1914396887159535
0.4608468757152666
1.517894254978256
3.219482719157702
1.4953353170061798
0.41250629434653235
1.8337193865873196
3.219482719157702
2.9487754634927903
0.5414145113298238
0.4221744106202792
2.439588006408789
3.219482719157702
2.42669718471046
0.4608468757152666
0.41895170519569697
0.42539711604486147
1.8917280842298008
3.2130373083085373
3.2227054245822844
1.6500251773861294
3.216260013733119
3.2227054245822844
2.4911512932021056
0.5285236896314945
0.4705149919890135
0.4221744106202792
0.5704188601510644
1.553344014648661
0.43828793774319064
0.42539711604486147
1.2052918287937744
2.3525749599450676
3.2130373083085373
3.2130373083085373
3.216260013733119
0.7573357747768368
0.4672922865644312
0.4640695811398489
2.6136140993362322
2.3751338979171432
1.4695536736095216
0.5381918059052415
0.4705149919890135
0.4640695811398489
0.47696040283817803
0.47696040283817803
2.7006271457999538
3.206591897459373
1.0377111467154954
1.1408377203021287
0.9603662165255207
0.9700343327992675
0.41895170519569697
0.41572899977111466
0.41572899977111466
0.42539711604486147
0.41250629434653235
0.41250629434653235
3.0776836804760817
2.410583657587549
1.7015884641794459
3.216260013733119
3.209814602883955
3.216260013733119
2.607168688487068
1.6822522316319524
0.8185671778439001
0.4286198214694438
0.4576241702906843
0.48340581368734264
0.4705149919890135
2.204330510414282
2.974557106889448
3.216260013733119
3.2130373083085373
3.206591897459373
1.67902952620737
0.5962005035477226
0.4318425268940261
0.48018310826276034
2.094758525978485
3.219482719157702
3.209814602883955
2.2365575646601052
0.6348729686427099
0.4640695811398489
0.5478599221789884
3.2130373083085373
0.4318425268940261
2.6232822156099793
3.209814602883955
2.993893339436942
0.4318425268940261
0.47696040283817803
2.3622430762188142
3.209814602883955
1.9207324330510414
0.49307392996108945
2.1398764019226366
3.209814602883955
0.9990386816205081
0.4866285191119249
2.9874479285877773
3.209814602883955
0.4286198214694438
0.5639734493018997
3.216260013733119
2.2526710917830166
0.4898512245365072
3.216260013733119
0.9313618677042801
0.5478599221789884
3.216260013733119
0.7670038910505836
1.031265735866331
3.209814602883955
0.4286198214694438
3.216260013733119
0.4672922865644312
1.4341039139391165
1.405099565117876
2.5491599908445868
0.8153444724193178
2.9004348821240558
2.7650812542915997
0.5253009842069123
3.167919432364385
0.737999542229343
3.216260013733119
0.4672922865644312
3.216260013733119
0.4672922865644312
3.209814602883955
2.2011078049897
0.41572899977111466
2.304234378576333
2.6748455024032958
3.2130373083085373
1.2858594644083312
0.7927855344472419
3.219482719157702
0.47696040283817803
2.7392996108949417
2.6103913939116503
0.5188555733577477
3.209814602883955
0.39639276722362093
0.39961547264820324
3.2323735408560306
0.7444449530785077
0.5317463950560769
3.2291508354314487
1.1924010070954452
0.16758068207827878
0.19980773632410162
2.3976928358892193
3.2227054245822844
2.507264820325017
0.1804715037766079
0.25137102311741816
3.219482719157702
2.858539711604486
0.17724879835202564
0.7444449530785077
3.2259281300068663
3.17436484321355
3.2323735408560306
0.4640695811398489
0.7476676585030899
0.16435797665369647
3.2323735408560306
2.3880247196154722
0.17080338750286103
1.4147676813916226
3.2259281300068663
3.2355962462806134
1.4502174410620279
0.17080338750286103
0.2449256122682536
2.861762417029068
3.164696726939803
2.993893339436942
0.1804715037766079
0.17080338750286103
2.5266010528725107
2.8424261844815746
3.2227054245822844
2.607168688487068
0.17724879835202564
3.2227054245822844
3.2227054245822844
3.2259281300068663
3.2227054245822844
3.2259281300068663
3.2259281300068663
3.2259281300068663
3.2259281300068663
3.2259281300068663
3.2259281300068663
3.2227054245822844
3.2259281300068663
3.2227054245822844
3.2227054245822844
3.2259281300068663
3.2259281300068663
3.216260013733119
3.1808102540627146
3.148583199816892
3.1099107347219044
3.0809063859006636
3.055124742504005
3.0261203936827648
3.0035614557106887
2.971334401464866
2.9487754634927903
2.922993820096132
2.8972121766994734
2.868207827878233
2.8424261844815746
2.819867246509499
2.7940856031128405
2.7715266651407644
2.7489677271686883
2.7264087891966122
2.703849851224536
2.065754177157244
1.440549324788281
1.2246280613412681
1.0248203250171664
1.2504097047379261
0.715440604257267
1.485667200732433
2.5169329365987636
1.962627603570611
1.4598855573357747
0.16113527122911422
1.5404531929503318
2.3880247196154722
0.4286198214694438
1.2020691233691918
1.4437720302128632
0.15791256580453192
0.15791256580453192
0.1546898603799496
0.15791256580453192
0.15791256580453192
0.15791256580453192
0.15791256580453192
0.15791256580453192
0.15791256580453192
2.0174135957885095
2.107649347676814
0.15791256580453192
0.15791256580453192
0.15791256580453192
0.15791256580453192
0.1546898603799496
1.089274433508812
1.56623483634699
1.2955275806820783
2.7006271457999538
3.2227054245822844
3.2227054245822844
3.2227054245822844
3.2227054245822844
3.2227054245822844
3.2227054245822844
3.2227054245822844
3.2227054245822844
3.2227054245822844
2.7489677271686883
1.8208285648889906
0.5962005035477226
0.15791256580453192
2.484705882352941
3.2227054245822844
3.2227054245822844
3.2259281300068663
3.2227054245822844
1.7724879835202563
1.8659464408331423
0.15791256580453192
0.15791256580453192
0.15791256580453192
3.2259281300068663
0.15791256580453192
0.15791256580453192
3.2227054245822844
3.2227054245822844
3.2227054245822844
3.2227054245822844
3.2227054245822844
3.2227054245822844
3.2259281300068663
3.2227054245822844
3.2227054245822844
2.178548867017624
2.265561913481346
2.6587319752803844
3.167919432364385
3.2227054245822844
1.3567589837491416
1.0924971389333944
0.16435797665369647
1.7241474021515222
2.6361730373083083
3.1389150835431447
1.517894254978256
0.16113527122911422
0.16435797665369647
2.165658045319295
3.164696726939803
2.858539711604486
3.196923781185626
0.16113527122911422
0.16113527122911422
1.9722957198443578
3.2259281300068663
0.4898512245365072
0.16113527122911422
0.39961547264820324
3.032565804531929
3.2259281300068663
0.16113527122911422
0.16113527122911422
1.9594048981460288
3.216260013733119
3.2130373083085373
0.23525749599450674
0.1804715037766079
2.097981231403067
3.2227054245822844
1.395431448844129
0.7476676585030899
0.18691691462577248
3.029343099107347
3.200146486610208
0.16435797665369647
0.17724879835202564
2.597500572213321
3.2227054245822844
0.8056763561455711
0.16758068207827878
1.4469947356374455
3.2259281300068663
3.2130373083085373
0.4608468757152666
0.17724879835202564
2.323570611123827
3.2227054245822844
3.209814602883955
0.16435797665369647
0.18691691462577248
3.219482719157702
3.216260013733119
0.7412222476539254
0.16113527122911422
3.093797207598993
3.0164522774090177
1.9594048981460288
0.17402609292744334
0.17724879835202564
3.2227054245822844
3.2227054245822844
1.0248203250171664
3.2259281300068663
3.2227054245822844
3.2227054245822844
1.7434836346990157
1.0957198443579768
3.0712382696269165
3.2227054245822844
1.9432913710231172
0.16113527122911422
2.2301121538109405
3.2227054245822844
3.2227054245822844
3.2227054245822844
3.2227054245822844
3.2227054245822844
3.2227054245822844
3.2227054245822844
3.2259281300068663
3.2227054245822844
3.2227054245822844
3.219482719157702
3.1808102540627146
3.148583199816892
3.1131334401464863
3.0809063859006636
3.048679331654841
3.0164522774090177
2.9874479285877773
2.961666285191119
2.929439230945296
2.9036575875486377
2.8746532387273973
2.8520943007553217
2.823089951934081
2.8005310139620048
2.777972075989929
2.7521904325932707
2.7296314946211946
2.707072556649119
2.5459372854200044
0.8056763561455711
0.16113527122911422
0.15791256580453192
0.15791256580453192
0.9345845731288625
0.4447333485923552
0.16113527122911422
0.15791256580453192
0.6026459143968872
0.16113527122911422
0.15791256580453192
3.2227054245822844
0.16113527122911422
0.15791256580453192
0.15791256580453192
0.15791256580453192
0.15791256580453192
0.2030304417486839
1.985186541542687
2.5588281071183334
1.521116960402838
0.15791256580453192
3.2227054245822844
1.1827328908216983
3.2227054245822844
3.219482719157702
2.197885099565118
0.31582513160906384
1.1633966582742046
0.16113527122911422
0.15791256580453192
0.15791256580453192
0.15791256580453192
0.15791256580453192
0.15791256580453192
0.15791256580453192
0.15791256580453192
0.15791256580453192
0.1450217441062028
0.1417990386816205
0.34482948043030437
0.2255893797207599
0.4608468757152666
0.5381918059052415
0.39639276722362093
0.40283817807278555
0.351274891279469
0.351274891279469
0.3673884184023804
0.3867246509498741
0.3899473563744564
1.1440604257267109
0.45440146486610206
2.1173174639505605
2.9906706340123597
3.219482719157702
3.2227054245822844
3.2130373083085373
3.2130373083085373
3.2130373083085373
2.632950331883726
2.030304417486839
2.574941634241245
1.7660425726710915
2.0174135957885095
2.0818677042801554
1.746706340123598
1.327754634927901
1.869169146257725
2.0109681849393453
1.90461890592813
3.206591897459373
2.829535362783245
3.216260013733119
3.216260013733119
3.219482719157702
3.219482719157702
3.2227054245822844
3.2227054245822844
3.2227054245822844
2.3848020141908903
0.4415106431677729
0.1546898603799496
0.16113527122911422
0.2803753719386587
0.679990844586862
1.440549324788281
2.246225680933852
3.216260013733119
3.219482719157702
3.2227054245822844
2.320347905699245
0.1546898603799496
3.2227054245822844
3.0680155642023346
2.030304417486839
0.17724879835202564
0.1546898603799496
0.1546898603799496
0.5059647516594187
1.0699382009613183
3.216260013733119
3.216260013733119
3.2227054245822844
3.2227054245822844
2.758635843442435
1.0119295033188374
0.1546898603799496
0.4221744106202792
0.7444449530785077
2.001300068665598
3.219482719157702
3.219482719157702
3.219482719157702
1.8014923323414966
1.7531517509727625
0.1546898603799496
0.1546898603799496
0.4640695811398489
1.3406454566262302
3.219482719157702
3.2227054245822844
3.2227054245822844
2.439588006408789
0.8572396429388875
0.15146715495536736
0.15146715495536736
0.15146715495536736
0.39961547264820324
3.1260242618448157
2.3493522545204852
2.8972121766994734
2.8069764248111695
3.219482719157702
3.2227054245822844
3.2227054245822844
0.7637811856260013
0.15146715495536736
0.9152483405813686
2.707072556649119
1.2665232318608375
2.5491599908445868
1.1086106660563058
3.2227054245822844
3.2227054245822844
2.678068207827878
1.1956237125200275
0.15146715495536736
0.14824444953078506
0.14824444953078506
0.15146715495536736
0.8217898832684825
1.4566628519111924
3.200146486610208
3.2227054245822844
3.2227054245822844
3.106688029297322
2.790862897688258
1.8208285648889906
1.737038223849851
1.4212130922407873
1.359981689173724
0.14824444953078506
0.43828793774319064
0.14824444953078506
0.32871595330739295
1.4018768596932936
2.0496406500343327
3.20336919203479
3.2130373083085373
3.1518059052414737
3.2227054245822844
3.2227054245822844
2.4428107118333715
1.485667200732433
1.5791256580453192
1.0506019684138246
1.7757106889448386
0.3544975967040513
1.4244357976653697
0.14824444953078506
0.14824444953078506
0.7863401235980773
2.4879285877775232
3.219482719157702
3.2227054245822844
3.2227054245822844
2.5362691691462578
0.9506981002517738
0.15791256580453192
0.14824444953078506
0.14824444953078506
0.14824444953078506
0.14824444953078506
1.2697459372854198
2.6522865644312197
3.2130373083085373
3.2227054245822844
3.2227054245822844
3.1840329594872965
1.7402609292744335
0.15791256580453192
0.14824444953078506
0.4705149919890135
1.7724879835202563
3.2130373083085373
3.219482719157702
3.219482719157702
2.5233783474479283
0.16758068207827878
0.14824444953078506
0.14824444953078506
1.6113527122911422
3.219482719157702
3.2227054245822844
2.574941634241245
1.6886976424811169
0.14824444953078506
0.15146715495536736
0.9990386816205081
3.2130373083085373
3.219482719157702
2.6748455024032958
3.2227054245822844
2.8746532387273973
1.1150560769054703
0.14824444953078506
0.14824444953078506
0.16113527122911422
2.9036575875486377
2.371911192492561
0.14824444953078506
0.2030304417486839
1.0506019684138246
3.219482719157702
0.14824444953078506
3.219482719157702
3.2227054245822844
3.219482719157702
3.219482719157702
3.219482719157702
2.819867246509499
2.3332387273975734
0.14824444953078506
3.1131334401464863
0.15146715495536736
3.1614740215152204
0.14824444953078506
1.0506019684138246
3.2227054245822844
0.14824444953078506
0.9764797436484322
2.981002517738613
3.219482719157702
0.14824444953078506
0.16758068207827878
2.823089951934081
3.2227054245822844
0.19013962005035476
0.14824444953078506
2.0496406500343327
3.219482719157702
2.6845136186770424

 begin log for calibration v12021-02-171.021597619592584
0.9861478599221789
1.4727763790341037
0.6928816662851911
0.9088029297322041
1.869169146257725
1.7434836346990157
2.0174135957885095
1.756374456397345
2.101203936827649
1.827273975738155
1.9658503089951933
0.6832135500114441
1.962627603570611
1.869169146257725
2.0206363012130923
1.994854657816434
2.317125200274662
2.3010116731517507
1.4469947356374455
1.3503135728999769
1.9336232547493706
2.5717189288166624
2.6232822156099793
2.323570611123827
2.1688807507438774
2.371911192492561
0.6574319066147859
1.9529594872968643
2.381579308766308
2.1205401693751433
2.4009155413138017
2.42669718471046
3.051902037079423
2.3493522545204852
2.7618585488670173
2.320347905699245
2.755413138017853
2.7876401922636758
2.8972121766994734
2.790862897688258
2.7425223163195236
2.542714579995422
0.49307392996108945
0.49629663538567176
0.49307392996108945
0.49307392996108945
0.6477637903410391
0.873353170061799
0.8636850537880522
1.237518883039597
1.282636758983749
1.0731609063859004
1.5372304875257494
1.8047150377660792
1.543675898374914
1.6500251773861294
1.6725841153582053
1.7853788052185853
1.6532478828107118
1.5082261387045088
1.598461890592813
1.7499290455481802
1.5855710688944837
1.4147676813916226
1.6629159990844586
1.4115449759670404
1.2246280613412681
1.5404531929503318
1.5404531929503318
1.408322270542458
1.6951430533302816
2.6748455024032958
2.5008194094758522
2.858539711604486
2.6297276264591436
2.4202517738612954
2.3010116731517507
2.4009155413138017
2.9552208743419546
3.20336919203479
3.200146486610208
3.20336919203479
3.20336919203479
3.145360494392309
3.20336919203479
3.200146486610208
3.145360494392309
3.200146486610208
3.200146486610208
1.0377111467154954
0.4705149919890135
0.941029983978027
1.3309773403524832
1.4373266193636987
1.0280430304417487
1.327754634927901
1.5597894254978255
2.587832455939574
2.3332387273975734
2.155989929045548
2.0045227740901805
2.0560860608834974
2.155989929045548
2.1205401693751433
1.9787411306935223
0.8443488212405584
0.4737376974135958
0.6703227283131151
1.756374456397345
2.0818677042801554
1.6919203479056992
1.8208285648889906
1.8176058594644082
1.8562783245593957
2.085090409704738
0.47696040283817803
0.47696040283817803
0.4737376974135958
0.4737376974135958
0.47696040283817803
0.895912108033875
0.567196154726482
2.2430029755092695
2.2494483863584347
2.2301121538109405
0.4737376974135958
0.47696040283817803
0.47696040283817803
0.48018310826276034
0.6155367360952162
0.7895628290226596
0.8604623483634698
1.0280430304417487
1.0924971389333944
1.1376150148775461
1.1601739528496224
1.169842069123369
1.2020691233691918
0.8540169375143053
0.9055802243076219
1.282636758983749
2.265561913481346
3.206591897459373
3.206591897459373
3.20336919203479
3.20336919203479
3.0196749828336005
2.5684962233920805
2.359020370794232
2.226889448386358
2.339684138246738
2.204330510414282
2.2848981460288393
2.207553215838865
2.097981231403067
2.0077454795147633
1.9271778439002059
1.8852826733806363
2.072199588006409
1.9787411306935223
1.869169146257725
1.7821560997940031
1.6242435339894712
1.5823483634699016
1.5340077821011673
1.5017807278553443
1.4727763790341037
1.4276585030899518
1.4469947356374455
1.643579766536965
1.6210208285648888
1.5372304875257494
1.5082261387045088
1.4212130922407873
1.543675898374914
0.7283314259555962
0.6026459143968872
1.2568551155870908
1.475999084458686
1.5468986037994965
1.5372304875257494
1.4695536736095216
1.543675898374914
1.4824444953078508
1.588793774319066
1.5468986037994965
1.4341039139391165
1.543675898374914
1.475999084458686
1.5823483634699016
1.6081300068665596
1.5726802471961545
1.5146715495536736
1.430881208514534
1.3760952162966353
1.3503135728999769
1.3470908674753947
0.9635889219501029
0.9506981002517738
1.031265735866331
1.282636758983749
1.6403570611123826
1.4244357976653697
1.4437720302128632
1.5630121309224079
1.4985580224307622
1.4147676813916226
1.6629159990844586
1.543675898374914
1.6210208285648888
1.440549324788281
1.3825406271457998
1.56623483634699
1.4727763790341037
0.7863401235980773
0.4866285191119249
0.48018310826276034
1.2761913481345846
1.4437720302128632
1.4921126115815975
1.530785076676585
1.5275623712520026
1.475999084458686
1.601684596017395
1.6693614099336231
1.543675898374914
1.6371343556878002
1.7757106889448386
1.849832913710231
1.5791256580453192
1.7080338750286106
1.8304966811627372
1.8852826733806363
1.6661387045090408
1.6177981231403067
1.7757106889448386
1.5952391851682308
1.6242435339894712
1.6274662394140536
1.7789333943694208
1.56623483634699
1.1827328908216983
1.5372304875257494
1.6532478828107118
0.6703227283131151
1.3503135728999769
1.3535362783245595
1.2890821698329138
1.9755184252689402
1.2665232318608375
1.5372304875257494
2.0141908903639276
1.4212130922407873
1.6049073014419775
0.9635889219501029
2.039972533760586
1.7531517509727625
1.769265278095674
1.824051270313573
1.4373266193636987
2.030304417486839
1.9884092469672694
1.5823483634699016
1.1633966582742046
1.4921126115815975
1.7434836346990157
1.8562783245593957
1.7886015106431679
1.6629159990844586
1.8788372625314715
2.1366536964980547
1.9529594872968643
1.8852826733806363
2.0915358205539025
2.1269855802243076
1.9432913710231172
1.872391851682307
1.9980773632410163
2.072199588006409
1.985186541542687
2.052863355458915
2.0077454795147633
2.062531471732662
1.8917280842298008
1.7660425726710915
1.8337193865873196
1.9529594872968643
2.1044266422522315
1.9658503089951933
1.7886015106431679
2.0141908903639276
0.48340581368734264
0.48018310826276034
0.48018310826276034
0.48018310826276034
0.48340581368734264
0.5091874570840009
0.7927855344472419
0.48018310826276034
0.48340581368734264
0.48340581368734264
0.7283314259555962
0.7702265964751659
0.6380956740672923
1.0796063172350652
0.9055802243076219
1.0699382009613183
1.3245319295033189
1.057047379262989
1.1988464179446097
2.2301121538109405
3.206591897459373
3.206591897459373
3.20336919203479
3.1937010757610436
3.0100068665598534
3.0712382696269165
3.0583474479285875
2.6845136186770424
2.346129549095903
0.8797985809109636
0.9893705653467612
0.7315541313801784
0.6671000228885328
1.066715495536736
1.15695124742504
1.031265735866331
0.8991348134584572
1.0731609063859004
1.3342000457770655
1.4276585030899518
1.2536324101625085
1.2890821698329138
1.3567589837491416
1.7241474021515222
1.6371343556878002
1.4953353170061798
1.553344014648661
1.8143831540398259
2.001300068665598
1.8756145571068894
1.6661387045090408
1.714479285877775
1.6693614099336231
1.714479285877775
1.9465140764476996
1.985186541542687
1.6500251773861294
1.4276585030899518
1.430881208514534
1.827273975738155
3.206591897459373
3.206591897459373
3.206591897459373
3.206591897459373
3.206591897459373
3.206591897459373
3.206591897459373
3.206591897459373
3.20336919203479
3.206591897459373
3.206591897459373
3.206591897459373
2.810199130235752
2.6007232776379032
2.6393957427328907
2.594277866788739
2.6587319752803844
1.8014923323414966
0.5768642710002289
0.6671000228885328
0.9281391622796978
0.7186633096818493
0.8443488212405584
0.6993270771343556
0.9571435111009383
0.7412222476539254
0.6703227283131151
0.7508903639276722
0.7412222476539254
1.0022613870450903
1.1408377203021287
1.0924971389333944
1.2761913481345846
1.2633005264362553
1.3309773403524832
1.5565667200732431
1.5404531929503318
1.440549324788281
1.3567589837491416
1.327754634927901
1.3051956969558252
1.237518883039597
1.1666193636987867
1.0731609063859004
1.0054840924696726
1.0957198443579768
1.0473792629892424
1.3374227512016479
1.237518883039597
1.292304875257496
1.2310734721904324
1.2665232318608375
1.1956237125200275
1.2665232318608375
1.5630121309224079
1.6822522316319524
1.601684596017395
1.6468024719615473
1.5114488441290912
1.5146715495536736
1.530785076676585
1.5823483634699016
1.521116960402838
1.7305928130006865
1.6629159990844586
1.7048111696040282
1.8562783245593957
1.7789333943694208
1.6629159990844586
1.836942092011902
1.8433875028610665
1.8014923323414966
1.7724879835202563
1.7628198672465094
1.8433875028610665
1.849832913710231
1.8659464408331423
1.869169146257725
1.9175097276264592
1.8917280842298008
1.6629159990844586
1.7531517509727625
2.0593087663080794
1.872391851682307
1.7950469214923324
1.8143831540398259
1.7402609292744335
1.849832913710231
1.827273975738155
1.9465140764476996
2.0238590066376747
2.0560860608834974
2.0270817120622566
2.0689768825818264
1.9980773632410163
1.9980773632410163
1.9916319523918515
2.065754177157244
2.951998168917372
2.942330052643625
2.858539711604486
2.603945983062485
2.4879285877775232
1.8917280842298008
1.7628198672465094
1.543675898374914
1.8562783245593957
1.6758068207827879
2.0496406500343327
2.2172213321126115
2.204330510414282
2.3300160219729915
2.0496406500343327
2.2236667429617762
2.2365575646601052
2.1366536964980547
1.9271778439002059
2.146321812771801
1.8176058594644082
1.6500251773861294
0.9893705653467612
1.4437720302128632
1.8047150377660792
1.9110643167772945
2.08831311512932
1.9336232547493706
1.8852826733806363
1.7757106889448386
2.030304417486839
2.0270817120622566
2.1624353398947123
2.220444037537194
1.9368459601739527
2.039972533760586
2.6265049210345617
2.829535362783245
3.0003387502861063
2.7844174868390934
2.5040421149004346
1.7177019913023575
1.5630121309224079
1.90461890592813
1.9078416113527121
1.5340077821011673
1.5050034332799267
3.206591897459373
3.206591897459373
3.206591897459373
3.206591897459373
2.1044266422522315
1.8917280842298008
2.4492561226825362
1.598461890592813
1.3793179217212175
1.247186999313344
0.48018310826276034
0.6155367360952162
0.48018310826276034
0.47696040283817803
0.6542092011902036
2.1108720531013963
3.206591897459373
3.206591897459373
3.206591897459373
3.206591897459373
3.0003387502861063
2.2301121538109405
2.1173174639505605
1.7950469214923324
2.0689768825818264
1.7209246967269396
1.6951430533302816
2.0077454795147633
1.9561821927214464
1.5017807278553443
1.485667200732433
1.8885053788052186
1.8143831540398259
1.4276585030899518
0.5639734493018997
0.47696040283817803
0.9797024490730144
0.9023575188830396
0.6864362554360265
0.8926894026092926
1.1956237125200275
0.9539208056763561
0.7315541313801784
0.6703227283131151
0.9055802243076219
0.8572396429388875
0.5929777981231402
0.47696040283817803
0.47696040283817803
0.4737376974135958
0.47696040283817803
0.4737376974135958
0.48018310826276034
0.47696040283817803
0.4737376974135958
0.47696040283817803
0.6252048523689631
0.7960082398718241
1.1762874799725338
1.1601739528496224
1.1505058365758754
1.3535362783245595
1.1988464179446097
1.1118333714808881
1.1601739528496224
1.4502174410620279
1.372872510872053
1.4502174410620279
1.5597894254978255
1.8176058594644082
1.6468024719615473
1.6886976424811169
1.8530556191348135
1.6822522316319524
1.5952391851682308
1.746706340123598
2.0141908903639276
2.0464179446097504
2.0109681849393453
1.7209246967269396
1.6886976424811169
1.8176058594644082
2.0367498283360037
2.0593087663080794
1.9271778439002059
1.711256580453193
1.6145754177157243
1.530785076676585
1.9078416113527121
1.930400549324788
1.8981734950789653
1.5920164797436482
1.5855710688944837
1.5920164797436482
1.5855710688944837
1.5791256580453192
1.588793774319066
1.714479285877775
1.824051270313573
1.9175097276264592
1.8079377431906614
1.8981734950789653
1.5823483634699016
1.5565667200732431
1.553344014648661
1.6468024719615473
1.8530556191348135
1.9207324330510414
1.372872510872053
0.895912108033875
1.4695536736095216
1.4953353170061798
1.4437720302128632
1.5694575417715724
1.7724879835202563
1.9271778439002059
1.949736781872282
1.9690730144197757
1.9239551384756237
1.9594048981460288
1.6629159990844586
1.6371343556878002
1.869169146257725
1.8788372625314715
1.6596932936598765
1.930400549324788
1.9658503089951933
2.0045227740901805
1.9980773632410163
2.0141908903639276
1.5275623712520026
1.2407415884641795
1.7338155184252688
1.7757106889448386
1.7531517509727625
1.67902952620737
1.6242435339894712
1.6854749370565345
1.7048111696040282
1.7434836346990157
1.543675898374914
1.3825406271457998
1.6886976424811169
1.5694575417715724
1.5855710688944837
1.5920164797436482
1.8047150377660792
1.9207324330510414
1.8756145571068894
1.8304966811627372
1.6725841153582053
1.79182421606775
1.8111604486152437
1.3922087434195467
1.601684596017395
1.7434836346990157
1.6629159990844586
1.6693614099336231
1.9078416113527121
1.746706340123598
2.0206363012130923
2.0206363012130923
2.030304417486839
1.9336232547493706
2.001300068665598
1.9142870222018766
1.8433875028610665
1.8014923323414966
1.7241474021515222
1.6693614099336231
1.6822522316319524
1.67902952620737
1.6532478828107118
1.7080338750286106
1.5372304875257494
1.5468986037994965
1.5565667200732431
1.6242435339894712
1.237518883039597
1.6403570611123826
1.849832913710231
1.985186541542687
2.052863355458915
2.062531471732662
2.0818677042801554
2.0270817120622566
1.7273701075761043
1.8756145571068894
1.7821560997940031
1.67902952620737
0.6735454337376974
0.4705149919890135
0.9152483405813686
1.4502174410620279
1.6758068207827879
1.656470588235294
1.7821560997940031
1.8304966811627372
1.7660425726710915
1.756374456397345
1.711256580453193
1.711256580453193
1.824051270313573
1.836942092011902
1.8337193865873196
1.9916319523918515
1.981963836118105
1.8337193865873196
1.8917280842298008
1.8079377431906614
1.8433875028610665
1.79182421606775
1.5114488441290912
1.4566628519111924
1.601684596017395
1.9980773632410163
1.8304966811627372
1.8143831540398259
1.5823483634699016
1.7080338750286106
1.6983657587548637
1.6983657587548637
1.5630121309224079
1.4824444953078508
1.3213092240787365
1.2052918287937744
1.3696498054474708
1.3857633325703822
1.4373266193636987
1.656470588235294
1.7273701075761043
1.6983657587548637
1.7273701075761043
1.543675898374914
1.8756145571068894
1.827273975738155
2.3751338979171432
2.8520943007553217
2.7618585488670173
3.1260242618448157
2.8359807736324103
2.371911192492561
3.164696726939803
2.7715266651407644
2.6297276264591436
2.5362691691462578
1.6371343556878002
2.1882169832913707
2.0174135957885095
1.6758068207827879
2.1366536964980547
1.836942092011902
2.323570611123827
2.4653696498054476
2.7973083085374224
2.5684962233920805
2.552382696269169
2.584609750514992
2.4202517738612954
2.5813870450904095
2.255893797207599
2.3944701304646374
2.3300160219729915
2.1366536964980547
2.436365300984207
2.297788967727169
2.436365300984207
2.439588006408789
2.475037766079194
2.9101029983978024
2.971334401464866
3.20336919203479
3.206591897459373
3.20336919203479
2.2236667429617762
2.4041382467383836
2.371911192492561
2.317125200274662
2.143099107347219
1.9239551384756237
1.90461890592813
0.4705149919890135
0.4705149919890135
0.4737376974135958
0.4737376974135958
0.47696040283817803
0.4705149919890135
0.4705149919890135
0.4705149919890135
0.4705149919890135
0.5639734493018997
0.6993270771343556
0.6542092011902036
0.6477637903410391
0.6606546120393683
0.9958159761959258
1.089274433508812
1.2987502861066604
1.1988464179446097
1.440549324788281
1.3535362783245595
1.4212130922407873
1.3567589837491416
1.5791256580453192
1.6822522316319524
1.5759029526207369
1.7595971618219273
1.4147676813916226
1.4727763790341037
1.440549324788281
1.8756145571068894
1.8208285648889906
2.1688807507438774
1.9884092469672694
1.7853788052185853
1.8014923323414966
1.7402609292744335
1.2214053559166858
0.8572396429388875
0.8765758754863813
0.8669077592126344
1.1956237125200275
1.4985580224307622
1.7757106889448386
2.1108720531013963
3.167919432364385
3.106688029297322
2.5491599908445868
1.8627237354085602
1.5791256580453192
1.2310734721904324
1.057047379262989
1.0344884412909132
1.0054840924696726
0.7508903639276722
0.6735454337376974
1.4792217898832682
1.5340077821011673
1.4212130922407873
1.3084184023804073
1.2858594644083312
1.3084184023804073
1.3986541542687112
1.4115449759670404
1.4631082627603569
0.9023575188830396
0.6606546120393683
0.9990386816205081
1.3922087434195467
1.7273701075761043
2.0786449988555735
2.0367498283360037
1.9175097276264592
1.9239551384756237
2.030304417486839
1.9980773632410163
1.8627237354085602
2.1753261615930417
2.6007232776379032
2.7844174868390934
3.074460975051499
2.484705882352941
1.1279468986037995
0.715440604257267
0.9152483405813686
1.1956237125200275
1.4147676813916226
1.601684596017395
1.6049073014419775
1.6403570611123826
1.56623483634699
1.4663309681849392
1.4244357976653697
1.3922087434195467
1.4469947356374455
1.3857633325703822
1.5082261387045088
1.8659464408331423
1.8530556191348135
1.8433875028610665
1.8659464408331423
1.8401647974364843
1.7015884641794459
1.6403570611123826
1.633911650263218
1.6242435339894712
1.5597894254978255
1.7531517509727625
1.7273701075761043
1.7757106889448386
1.7305928130006865
1.6242435339894712
1.8208285648889906
1.6403570611123826
1.6210208285648888
1.859501029983978
1.6081300068665596
1.3664271000228883
1.4244357976653697
1.5114488441290912
1.6049073014419775
1.5823483634699016
1.5823483634699016
1.7305928130006865
1.79182421606775
1.6661387045090408
2.1688807507438774
2.3429068436713205
1.79182421606775
1.8014923323414966
1.8562783245593957
1.8111604486152437
1.8304966811627372
1.7757106889448386
1.7628198672465094
1.9916319523918515
2.0141908903639276
2.143099107347219
2.072199588006409
2.1108720531013963
2.043195239185168
1.985186541542687
1.9336232547493706
1.8885053788052186
1.9755184252689402
1.9175097276264592
2.0109681849393453
2.0464179446097504
2.0238590066376747
1.9594048981460288
1.90461890592813
1.9175097276264592
1.9594048981460288
2.062531471732662
2.101203936827649
2.039972533760586
1.8111604486152437
2.0689768825818264
1.9594048981460288
1.8466102082856488
1.8917280842298008
1.7886015106431679
1.6371343556878002
1.359981689173724
1.2181826504921034
1.2052918287937744
1.0022613870450903
1.0280430304417487
1.1311696040283816
1.1859555962462804
1.102165255207141
1.3503135728999769
1.4276585030899518
1.4792217898832682
1.5275623712520026
1.2761913481345846
1.6113527122911422
1.67902952620737
1.6983657587548637
1.4341039139391165
1.5468986037994965
1.7080338750286106
1.7338155184252688
1.8401647974364843
1.869169146257725
1.8627237354085602
1.9368459601739527
1.8949507896543831
1.9594048981460288
1.6371343556878002
1.8304966811627372
1.8788372625314715
1.9207324330510414
1.9207324330510414
1.8337193865873196
1.8466102082856488
1.882059967956054
1.7241474021515222
1.930400549324788
1.8981734950789653
1.9561821927214464
1.9465140764476996
1.8885053788052186
1.824051270313573
1.90461890592813
1.79182421606775
1.79182421606775
1.6532478828107118
1.6468024719615473
1.6145754177157243
1.930400549324788
2.0270817120622566
1.2310734721904324
1.2214053559166858
1.066715495536736
1.2085145342183565
2.8843213550011444
3.20336919203479
2.9004348821240558
2.8649851224536507
2.703849851224536
2.6522865644312197
2.4975967040512703
2.359020370794232
2.326793316548409
2.2430029755092695
2.1946623941405354
2.2494483863584347
2.220444037537194
2.165658045319295
2.204330510414282
2.072199588006409
2.0560860608834974
2.0206363012130923
1.9271778439002059
1.7338155184252688
0.47696040283817803
0.4737376974135958
0.4737376974135958
0.47696040283817803
1.6725841153582053
2.4041382467383836
1.994854657816434
2.0238590066376747
2.133430991073472
2.1753261615930417
2.1108720531013963
2.1592126344701303
1.9239551384756237
1.7724879835202563
1.849832913710231
1.8047150377660792
1.6758068207827879
1.7305928130006865
1.7241474021515222
1.56623483634699
1.5630121309224079
1.4985580224307622
1.5468986037994965
1.6081300068665596
1.6306889448386357
1.5243396658274204
1.5952391851682308
1.6177981231403067
1.6145754177157243
0.48340581368734264
0.4737376974135958
0.4737376974135958
0.4737376974135958
0.4737376974135958
1.4663309681849392
1.56623483634699
2.0560860608834974
2.1624353398947123
2.0560860608834974
2.0109681849393453
2.0270817120622566
1.9175097276264592
1.7531517509727625
1.7273701075761043
1.5855710688944837
1.6274662394140536
1.6081300068665596
1.601684596017395
1.56623483634699
1.6081300068665596
1.711256580453193
2.0464179446097504
2.1108720531013963
2.359020370794232
2.5137102311741817
2.768303959716182
3.206591897459373
3.206591897459373
3.206591897459373
3.206591897459373
3.206591897459373
3.196923781185626
3.0583474479285875
2.8746532387273973
2.710295262073701
2.632950331883726
2.542714579995422
2.4557015335317005
2.3976928358892193
2.3493522545204852
2.317125200274662
2.1108720531013963
2.0109681849393453
1.9175097276264592
1.292304875257496
1.4727763790341037
1.3922087434195467
1.237518883039597
1.3825406271457998
1.3438681620508124
1.430881208514534
1.5726802471961545
1.5275623712520026
1.5920164797436482
1.5017807278553443
1.530785076676585
1.3889860379949646
1.601684596017395
1.3213092240787365
1.3470908674753947
1.5759029526207369
1.5404531929503318
1.4631082627603569
1.6210208285648888
1.6661387045090408
1.517894254978256
1.746706340123598
1.643579766536965
1.6629159990844586
1.5114488441290912
1.3470908674753947
1.9465140764476996
0.7476676585030899
0.8830212863355458
0.9829251544975967
1.0087067978942548
1.0828290226596475
1.0828290226596475
1.2439642938887616
1.4147676813916226
1.4727763790341037
3.206591897459373
3.206591897459373
3.206591897459373
3.142137788967727
2.8972121766994734
2.790862897688258
2.8488715953307393
2.8488715953307393
2.7940856031128405
2.7715266651407644
2.494373998626688
2.429919890135042
2.3525749599450676
2.2848981460288393
2.1173174639505605
2.0560860608834974
2.0786449988555735
2.0689768825818264
1.9787411306935223
1.9980773632410163
1.9529594872968643
1.9207324330510414
1.8337193865873196
1.7531517509727625
1.7338155184252688
1.6500251773861294
1.6500251773861294
1.5404531929503318
1.5726802471961545
1.714479285877775
1.7402609292744335
1.6983657587548637
1.5501213092240786
1.6210208285648888
1.5082261387045088
1.4727763790341037
1.4534401464866102
1.4566628519111924
1.4179903868162052
1.3825406271457998
1.359981689173724
1.2858594644083312
1.3019729915312426
1.3309773403524832
1.3342000457770655
0.4737376974135958
0.4737376974135958
0.4705149919890135
0.4705149919890135
0.4672922865644312
0.6380956740672923
0.8701304646372168
1.0248203250171664
2.768303959716182
2.7006271457999538
3.206591897459373
3.206591897459373
3.206591897459373
2.9648889906157017
2.951998168917372
3.13246967269398
3.209814602883955
3.206591897459373
3.200146486610208
3.093797207598993
3.0454566262302585
2.993893339436942
3.064792858777752
3.0905745021744107
2.6619546807049663
2.7940856031128405
2.7618585488670173
2.6361730373083083
2.6007232776379032
2.4041382467383836
2.359020370794232
2.1237628747997253
1.8143831540398259
2.033527122911421
1.9884092469672694
1.517894254978256
3.206591897459373
3.206591897459373
3.206591897459373
3.20336919203479
2.5717189288166624
1.9658503089951933
1.4921126115815975
1.247186999313344
1.359981689173724
1.1215014877546348
1.211737239642939
1.5565667200732431
0.9442526894026093
0.4608468757152666
0.4608468757152666
0.4608468757152666
0.4608468757152666
0.4608468757152666
1.057047379262989
2.220444037537194
2.378356603341726
0.9281391622796978
0.4672922865644312
1.066715495536736
2.371911192492561
2.062531471732662
2.226889448386358
2.2011078049897
2.2494483863584347
1.6532478828107118
1.6951430533302816
1.3374227512016479
0.760558480201419
0.4608468757152666
0.4576241702906843
0.4608468757152666
0.5865323872739757
0.6284275577935454
0.567196154726482
0.4576241702906843
0.5929777981231402
0.9055802243076219
0.9474753948271916
0.702549782558938
0.6864362554360265
0.9249164568551155
1.189178301670863
1.2342961776150148
1.0280430304417487
0.8894666971847104
1.0506019684138246
1.3406454566262302
2.2172213321126115
2.2430029755092695
2.5394918745708397
2.3429068436713205
2.5008194094758522
1.746706340123598
1.517894254978256
1.8111604486152437
2.1721034561684593
1.9271778439002059
1.7821560997940031
1.134392309452964
1.0860517280842297
1.4888899061570153
1.5920164797436482
1.6210208285648888
1.5630121309224079
1.5114488441290912
1.8885053788052186
2.097981231403067
2.268784618905928
2.1044266422522315
1.6629159990844586
1.9432913710231172
2.371911192492561
2.655509269855802
2.475037766079194
2.4331425955596244
2.0077454795147633
1.8949507896543831
1.849832913710231
1.7434836346990157
1.6500251773861294
1.4437720302128632
0.4576241702906843
0.4608468757152666
0.4576241702906843
0.4866285191119249
0.4608468757152666
0.5865323872739757
0.9990386816205081
1.2536324101625085
1.1666193636987867
1.0087067978942548
1.1182787823300526
1.5372304875257494
1.5855710688944837
1.3503135728999769
1.3019729915312426
1.4792217898832682
1.6274662394140536
1.5501213092240786
1.4212130922407873
1.3084184023804073
1.327754634927901
1.6081300068665596
1.4469947356374455
1.2955275806820783
1.6242435339894712
1.5243396658274204
1.9787411306935223
1.994854657816434
1.7305928130006865
1.5823483634699016
1.8466102082856488
1.9980773632410163
1.4469947356374455
0.4640695811398489
0.4640695811398489
0.4608468757152666
0.4576241702906843
0.6413183794918745
0.8475715266651408
1.5952391851682308
3.20336919203479
3.20336919203479
3.206591897459373
3.206591897459373
3.20336919203479
0.7541130693522544
0.4608468757152666
0.4608468757152666
0.4576241702906843
2.871430533302815
3.20336919203479
3.206591897459373
3.206591897459373
3.206591897459373
3.145360494392309
2.781194781414511
0.4576241702906843
0.4608468757152666
0.4640695811398489
0.4608468757152666
0.8830212863355458
0.8411261158159762
0.895912108033875
1.1956237125200275
1.1537285420004577
3.206591897459373
3.206591897459373
3.20336919203479
3.206591897459373
3.206591897459373
1.1988464179446097
0.4608468757152666
0.4576241702906843
0.4608468757152666
0.4576241702906843
0.4608468757152666
1.769265278095674
3.206591897459373
3.206591897459373
3.206591897459373
3.206591897459373
3.206591897459373
1.7402609292744335
0.4576241702906843
0.4576241702906843
0.4608468757152666
0.5188555733577477
0.783117418173495
1.15695124742504
1.102165255207141
0.8604623483634698
1.089274433508812
1.3503135728999769
1.189178301670863
1.1408377203021287
1.4502174410620279
1.5726802471961545
1.2052918287937744
1.2794140535591667
1.6468024719615473
1.6532478828107118
1.3342000457770655
1.4566628519111924
1.8176058594644082
1.633911650263218
1.3342000457770655
1.7724879835202563
1.4824444953078508
1.79182421606775
1.869169146257725
1.8659464408331423
1.6210208285648888
1.5468986037994965
2.0206363012130923
2.0141908903639276
1.6886976424811169
1.643579766536965
2.072199588006409
2.1366536964980547
1.7724879835202563
1.9980773632410163
1.0377111467154954
0.4576241702906843
0.4608468757152666
0.4576241702906843
0.4576241702906843
0.8088990615701533
0.8153444724193178
0.6413183794918745
1.1086106660563058
1.1666193636987867
0.873353170061799
1.1601739528496224
1.4921126115815975
1.1859555962462804
1.2246280613412681
1.601684596017395
1.4695536736095216
1.3213092240787365
3.209814602883955
3.20336919203479
3.20336919203479
3.206591897459373
3.20336919203479
3.206591897459373
3.206591897459373
3.206591897459373
3.1518059052414737
3.20336919203479
3.148583199816892
2.6007232776379032
2.665177386129549
1.7305928130006865
1.408322270542458
0.4576241702906843
0.4608468757152666
0.4576241702906843
0.4576241702906843
0.4576241702906843
0.4576241702906843
0.4576241702906843
0.45440146486610206
0.4608468757152666
0.8701304646372168
0.5929777981231402
0.6477637903410391
0.8540169375143053
0.7637811856260013
1.1956237125200275
1.2278507667658503
1.1924010070954452
0.7734493018997483
0.4608468757152666
0.45440146486610206
0.4576241702906843
0.4511787594415198
2.7231860837720303
2.5137102311741817
2.3525749599450676
3.206591897459373
3.200146486610208
3.206591897459373
3.187255664911879
3.196923781185626
3.206591897459373
3.200146486610208
3.200146486610208
3.20336919203479
2.587832455939574
2.4685923552300295
1.211737239642939
1.2955275806820783
1.1408377203021287
0.7960082398718241
0.544637216754406
0.45440146486610206
0.45440146486610206
0.4576241702906843
0.4576241702906843
0.4608468757152666
0.45440146486610206
0.45440146486610206
0.45440146486610206
0.45440146486610206
0.4576241702906843
0.4608468757152666
0.5929777981231402
0.4640695811398489
0.4576241702906843
0.8862439917601281
0.5414145113298238
0.9023575188830396
0.9925932707713435
0.7734493018997483
3.206591897459373
3.20336919203479
3.206591897459373
3.20336919203479
3.206591897459373
3.20336919203479
3.206591897459373
3.20336919203479
3.206591897459373
3.20336919203479
3.20336919203479
3.206591897459373
2.9777798123140307
3.1389150835431447
3.0132295719844358
2.381579308766308
2.6716227969787134
2.507264820325017
2.146321812771801
2.458924238956283
1.8304966811627372
2.062531471732662
1.4727763790341037
0.4608468757152666
0.4576241702906843
0.4608468757152666
0.45440146486610206
0.45440146486610206
0.4576241702906843
0.45440146486610206
0.4608468757152666
0.45440146486610206
0.45440146486610206
0.45440146486610206
0.45440146486610206
0.4608468757152666
0.45440146486610206
0.8926894026092926
0.6187594415197984
1.189178301670863
1.2890821698329138
1.4792217898832682
1.6951430533302816
1.3084184023804073
1.8788372625314715
1.5565667200732431
1.5597894254978255
2.204330510414282
1.9175097276264592
2.462146944380865
2.7876401922636758
2.4879285877775232
0.5253009842069123
0.4576241702906843
0.45440146486610206
0.7960082398718241
0.45440146486610206
0.8250125886930647
2.5201556420233464
3.20336919203479
2.823089951934081
2.839203479056992
2.5104875257495993
2.371911192492561
2.6490638590066378
2.094758525978485
2.565273517967498
2.094758525978485
2.607168688487068
2.155989929045548
2.310679789425498
2.1108720531013963
2.213998626688029
2.246225680933852
1.8949507896543831
1.7950469214923324
1.7660425726710915
2.0174135957885095
2.0593087663080794
1.5468986037994965
2.062531471732662
1.6661387045090408
1.746706340123598
2.0270817120622566
1.4727763790341037
1.9336232547493706
1.5565667200732431
1.949736781872282
1.5791256580453192
1.836942092011902
1.6274662394140536
1.7338155184252688
1.7434836346990157
1.7531517509727625
1.4598855573357747
1.930400549324788
1.4921126115815975
2.094758525978485
1.981963836118105
1.8208285648889906
1.9110643167772945
1.8756145571068894
2.9584435797665365
3.1840329594872965
3.167919432364385
2.881098649576562
2.4073609521629664
2.371911192492561
2.678068207827878
2.085090409704738
2.574941634241245
1.9368459601739527
2.4492561226825362
1.9465140764476996
2.043195239185168
2.378356603341726
1.9110643167772945
2.259116502632181
1.940068665598535
2.1269855802243076
2.0238590066376747
1.8788372625314715
2.2236667429617762
1.6951430533302816
1.7531517509727625
2.220444037537194
1.756374456397345
2.101203936827649
2.0496406500343327
1.7950469214923324
2.146321812771801
1.6596932936598765
2.133430991073472
1.9529594872968643
1.746706340123598
2.1108720531013963
1.6661387045090408
2.1624353398947123
1.7499290455481802
1.9175097276264592
2.0045227740901805
1.5597894254978255
2.0496406500343327
1.5630121309224079
1.8176058594644082
1.8756145571068894
1.5952391851682308
2.0238590066376747
1.6049073014419775
1.9271778439002059
1.7402609292744335
1.5823483634699016
1.9175097276264592
1.408322270542458
1.9690730144197757
1.4985580224307622
1.4985580224307622
1.8433875028610665
1.3503135728999769
1.9110643167772945
1.9594048981460288
1.3857633325703822
1.9078416113527121
1.3567589837491416
1.756374456397345
1.6725841153582053
1.2761913481345846
1.7789333943694208
1.2342961776150148
1.7531517509727625
1.4115449759670404
1.3406454566262302
1.6629159990844586
1.1956237125200275
1.4985580224307622
1.6210208285648888
1.1730647745479514
1.6113527122911422
1.4824444953078508
1.1988464179446097
1.598461890592813
1.4437720302128632
1.1988464179446097
1.6532478828107118
1.179510185397116
1.521116960402838
1.4985580224307622
1.1601739528496224
1.6242435339894712
1.3148638132295718
1.214959945067521
1.7305928130006865
1.1279468986037995
1.485667200732433
1.643579766536965
1.1440604257267109
1.5340077821011673
1.3793179217212175
1.2246280613412681
1.5855710688944837
1.0731609063859004
1.2633005264362553
1.598461890592813
0.9732570382238498
1.15695124742504
1.5404531929503318
1.2181826504921034
1.1215014877546348
1.4437720302128632
1.3793179217212175
1.04415655756466
1.0860517280842297
1.4502174410620279
1.4502174410620279
1.0119295033188374
1.1827328908216983
1.5082261387045088
1.089274433508812
1.0602700846875717
1.6177981231403067
1.3406454566262302
0.9990386816205081
1.3632043945983061
1.5565667200732431
1.2439642938887616
1.0344884412909132
1.4469947356374455
1.3309773403524832
1.4115449759670404
1.0280430304417487
1.2342961776150148
1.633911650263218
1.4953353170061798
1.1086106660563058
0.9925932707713435
1.4018768596932936
1.1247241931792173
1.021597619592584
0.9764797436484322
1.3664271000228883
1.4985580224307622
1.04415655756466
1.1247241931792173
1.179510185397116
1.6500251773861294
1.7402609292744335
1.3084184023804073
1.7402609292744335
1.7177019913023575
1.372872510872053
1.530785076676585
1.9884092469672694
1.601684596017395
1.3116411078049897
1.5565667200732431
1.9336232547493706
1.6242435339894712
1.4663309681849392
1.7209246967269396
1.9884092469672694
2.0238590066376747
1.5630121309224079
1.5404531929503318
1.930400549324788
2.0689768825818264
1.5565667200732431
1.5501213092240786
1.9690730144197757
1.7982696269169145
1.9787411306935223
2.0238590066376747
1.5082261387045088
1.67902952620737
1.7338155184252688
1.5791256580453192
1.2439642938887616
1.3889860379949646
1.7982696269169145
1.9175097276264592
1.3889860379949646
1.4888899061570153
2.152767223620966
2.246225680933852
1.7531517509727625
2.155989929045548
1.6822522316319524
2.085090409704738
2.2397802700846876
1.746706340123598
1.7499290455481802
2.1044266422522315
2.210775921263447
1.7724879835202563
1.6500251773861294
2.1398764019226366
1.9658503089951933
1.6081300068665596
2.0206363012130923
2.052863355458915
1.8917280842298008
1.5340077821011673
1.5340077821011673
1.836942092011902
2.1173174639505605
1.9755184252689402
1.5501213092240786
1.6081300068665596
2.033527122911421
2.0077454795147633
1.7434836346990157
1.5340077821011673
1.9432913710231172
2.0818677042801554
1.7821560997940031
1.4469947356374455
1.6532478828107118
1.9529594872968643
1.9271778439002059
1.824051270313573
1.4598855573357747
1.3406454566262302
1.4212130922407873
1.714479285877775
2.0206363012130923
1.869169146257725
1.67902952620737
1.0699382009613183
1.3406454566262302
1.4534401464866102
1.7886015106431679
1.6371343556878002
1.4953353170061798
1.5726802471961545
1.994854657816434
2.0689768825818264
1.9465140764476996
1.7305928130006865
1.553344014648661
1.6081300068665596
1.8047150377660792
2.0367498283360037
2.226889448386358
1.9690730144197757
1.5694575417715724
1.6500251773861294
2.085090409704738
2.1914396887159535
1.981963836118105
1.7177019913023575
2.9036575875486377
3.20336919203479
3.206591897459373
3.206591897459373
3.20336919203479
3.206591897459373
3.206591897459373
2.823089951934081
2.8778759441519797
2.429919890135042
2.5362691691462578
1.588793774319066
0.49629663538567176
0.49307392996108945
0.4672922865644312
0.4672922865644312
0.5478599221789884
0.8572396429388875
1.0796063172350652
1.2085145342183565
1.2085145342183565
1.211737239642939
0.918471046005951
0.7895628290226596
0.7992309452964065
0.9345845731288625
0.9055802243076219
1.3535362783245595
1.4727763790341037
1.2246280613412681
1.5050034332799267
1.3632043945983061
1.1537285420004577
0.9732570382238498
1.3567589837491416
1.8047150377660792
2.0045227740901805
2.3976928358892193
2.594277866788739
2.3074570840009154
2.143099107347219
1.6725841153582053
1.5082261387045088
1.588793774319066
1.9207324330510414
1.9175097276264592
1.67902952620737
1.430881208514534
1.4695536736095216
1.9368459601739527
2.1688807507438774
2.2752300297550923
2.1398764019226366
1.6500251773861294
1.6113527122911422
1.9110643167772945
1.962627603570611
2.246225680933852
2.143099107347219
2.0818677042801554
1.985186541542687
1.8788372625314715
1.6886976424811169
1.56623483634699
1.4663309681849392
1.6177981231403067
1.769265278095674
1.737038223849851
1.8143831540398259
1.6242435339894712
1.2504097047379261
0.7089951934081026
0.760558480201419
1.3019729915312426
0.4608468757152666
0.47696040283817803
0.5865323872739757
0.5575280384527351
0.4640695811398489
1.5340077821011673
1.962627603570611
2.0754222934309907
2.5459372854200044
2.552382696269169
2.3429068436713205
1.9722957198443578
1.8852826733806363
2.220444037537194
2.4009155413138017
2.320347905699245
2.2365575646601052
1.3535362783245595
0.9120256351567865
0.4608468757152666
0.4608468757152666
0.7734493018997483
1.3535362783245595
1.3793179217212175
0.7895628290226596
0.7702265964751659
0.9539208056763561
1.4727763790341037
1.5468986037994965
1.2407415884641795
1.7015884641794459
1.8917280842298008
1.6596932936598765
1.8885053788052186
1.643579766536965
1.3825406271457998
1.5243396658274204
1.4115449759670404
1.4663309681849392
1.4179903868162052
1.4502174410620279
2.0496406500343327
1.4824444953078508
2.6361730373083083
2.5394918745708397
2.9874479285877773
2.632950331883726
2.7360769054703593
2.5459372854200044
2.0593087663080794
1.8949507896543831
2.371911192492561
2.6587319752803844
2.484705882352941
2.255893797207599
3.206591897459373
3.206591897459373
2.9906706340123597
3.1518059052414737
2.6812909132524605
2.951998168917372
0.45440146486610206
0.4576241702906843
0.6058686198214694
0.4511787594415198
0.45440146486610206
0.6961043717097734
0.5285236896314945
0.9023575188830396
1.0022613870450903
1.1086106660563058
1.1666193636987867
1.0796063172350652
1.9561821927214464
3.20336919203479
3.20336919203479
3.20336919203479
3.20336919203479
3.206591897459373
3.155028610666056
3.164696726939803
2.8005310139620048
2.9004348821240558
2.6393957427328907
2.326793316548409
0.45440146486610206
0.45440146486610206

 begin log for calibration v12021-02-170.4898512245365072
0.6026459143968872
1.1956237125200275
2.359020370794232
0.8830212863355458
1.7531517509727625
2.5910551613641566
1.2568551155870908
0.6445410849164569
2.326793316548409
2.2881208514534217
0.8185671778439001
1.4631082627603569
2.645841153582055
2.6297276264591436
3.119578850995651
2.951998168917372
2.9068802929732205
2.758635843442435
1.7402609292744335
1.4888899061570153
1.5050034332799267
1.2504097047379261
2.0754222934309907
1.7757106889448386
3.0712382696269165
1.0183749141680019
2.826312657358663
3.06157015335317
2.030304417486839
1.7724879835202563
2.0367498283360037
1.1956237125200275
2.1624353398947123
3.042233920805676
1.2794140535591667
1.292304875257496
2.529823758297093
2.5910551613641566
1.4631082627603569
0.9152483405813686
1.1118333714808881
2.1914396887159535
2.939107347219043
2.758635843442435
1.9980773632410163
1.0602700846875717
0.7766720073243305
1.0731609063859004
1.756374456397345
2.439588006408789
2.8649851224536507
3.216260013733119
3.142137788967727
2.08831311512932
0.895912108033875
2.7231860837720303
0.7412222476539254
2.7973083085374224
3.0100068665598534
3.216260013733119
3.216260013733119
3.216260013733119
2.439588006408789
0.49951934081025406
0.49629663538567176
0.49307392996108945
0.49629663538567176
0.49951934081025406
0.5994232089723048
0.8991348134584572
0.49951934081025406
0.49629663538567176
0.49629663538567176
0.49951934081025406
1.6886976424811169
0.49951934081025406
0.49307392996108945
1.588793774319066
0.49629663538567176
0.49629663538567176
0.6574319066147859
0.49629663538567176
2.3654657816433966
1.656470588235294
1.1376150148775461
0.8572396429388875
0.6155367360952162
0.679990844586862
0.7895628290226596
1.2085145342183565
2.1882169832913707
2.703849851224536
2.7489677271686883
2.861762417029068
2.5008194094758522
1.9271778439002059
0.895912108033875
2.8520943007553217
2.603945983062485
3.0809063859006636
2.494373998626688
1.2278507667658503
0.873353170061799
1.769265278095674
2.922993820096132
2.858539711604486
1.521116960402838
0.8797985809109636
1.1376150148775461
2.184994277866789
2.858539711604486
2.6136140993362322
1.237518883039597
0.7798947127489128
2.072199588006409
0.9764797436484322
2.810199130235752
1.076383611810483
1.247186999313344
3.1292469672693977
3.1163561455710687
3.219482719157702
3.216260013733119
3.103465323872739
0.8507942320897229
1.3503135728999769
2.062531471732662
0.544637216754406
0.49629663538567176
2.2301121538109405
0.49629663538567176
2.4009155413138017
0.6090913252460517
1.4276585030899518
2.378356603341726
0.5059647516594187
1.1988464179446097
2.7231860837720303
2.2430029755092695
0.49629663538567176
2.1688807507438774
1.4695536736095216
0.5639734493018997
2.6232822156099793
1.2052918287937744
1.4824444953078508
0.6896589608606087
2.484705882352941
1.2536324101625085
1.6210208285648888
0.702549782558938
2.7876401922636758
0.8572396429388875
2.642618448157473
1.440549324788281
2.6812909132524605
1.4212130922407873
1.9465140764476996
2.6232822156099793
1.3567589837491416
3.164696726939803
0.7412222476539254
2.803753719386587
0.7702265964751659
2.562050812542916
1.3696498054474708
2.423474479285878
1.601684596017395
1.981963836118105
2.0593087663080794
1.7531517509727625
2.2397802700846876
1.2181826504921034
2.7940856031128405
0.9797024490730144
2.890766765850309
0.8475715266651408
2.5394918745708397
3.216260013733119
3.106688029297322
3.2130373083085373
3.216260013733119
3.206591897459373
3.216260013733119
3.216260013733119
3.2130373083085373
3.216260013733119
3.216260013733119
3.216260013733119
3.219482719157702
3.216260013733119
3.216260013733119
3.216260013733119
3.216260013733119
3.216260013733119
3.2130373083085373
3.216260013733119
3.216260013733119
3.2130373083085373
3.209814602883955
3.187255664911879
3.1582513160906385
3.1356923781185624
3.1099107347219044
3.087351796749828
3.064792858777752
3.0390112153810938
3.0164522774090177
2.9906706340123597
2.916548409246967
2.951998168917372
2.8649851224536507
1.7273701075761043
1.4985580224307622
1.405099565117876
2.7747493705653463
1.2439642938887616
0.9764797436484322
2.371911192492561
0.49307392996108945
1.4373266193636987
1.6468024719615473
0.49951934081025406
2.0174135957885095
0.6542092011902036
0.5027420462348363
0.5317463950560769
0.9216937514305332
0.5091874570840009
0.5124101625085832
0.5285236896314945
0.5188555733577477
0.5253009842069123
0.7766720073243305
0.49629663538567176
0.5253009842069123
1.1472831311512932
0.5059647516594187
0.5091874570840009
0.5929777981231402
0.5059647516594187
0.5027420462348363
0.5188555733577477
0.49951934081025406
0.49951934081025406
0.49951934081025406
0.49951934081025406
0.5059647516594187
0.873353170061799
0.5027420462348363
0.49951934081025406
0.5091874570840009
1.0409338521400777
0.5027420462348363
0.49951934081025406
1.169842069123369
1.1408377203021287
0.49307392996108945
0.49951934081025406
0.5865323872739757
1.2246280613412681
0.8443488212405584
0.49951934081025406
0.49629663538567176
0.49307392996108945
0.49951934081025406
0.6090913252460517
1.6468024719615473
1.5694575417715724
0.49629663538567176
0.589755092698558
1.1440604257267109
2.1108720531013963
2.107649347676814
1.430881208514534
0.52207827878233
0.7122178988326848
1.15695124742504
2.107649347676814
2.5910551613641566
2.5104875257495993
2.3332387273975734
1.5340077821011673
1.1247241931792173
1.2504097047379261
1.67902952620737
2.6232822156099793
3.216260013733119
3.0196749828336005
2.6812909132524605
2.7521904325932707
2.716740672922865
2.4975967040512703
2.320347905699245
2.2397802700846876
2.207553215838865
2.0238590066376747
1.8079377431906614
1.7080338750286106
1.4566628519111924
1.6919203479056992
2.6007232776379032
3.216260013733119
3.216260013733119
3.216260013733119
3.216260013733119
3.064792858777752
2.7618585488670173
2.5781643396658276
2.7973083085374224
2.9004348821240558
2.5233783474479283
3.219482719157702
3.216260013733119
3.219482719157702
2.951998168917372
2.758635843442435
2.5684962233920805
2.4879285877775232
1.90461890592813
1.4921126115815975
1.2665232318608375
0.8991348134584572
1.1247241931792173
1.517894254978256
1.4888899061570153
0.8217898832684825
0.5156328679331655
0.5027420462348363
0.49951934081025406
0.7412222476539254
1.3470908674753947
1.869169146257725
1.6822522316319524
0.7992309452964065
0.5124101625085832
0.49307392996108945
0.9732570382238498
2.304234378576333
1.8562783245593957
0.702549782558938
0.8701304646372168
2.0593087663080794
2.2752300297550923
1.0860517280842297
0.6606546120393683
1.5565667200732431
2.0270817120622566
2.1882169832913707
1.4631082627603569
0.9120256351567865
1.04415655756466
2.062531471732662
2.716740672922865
1.0731609063859004
0.9539208056763561
2.3622430762188142
1.214959945067521
1.4212130922407873
2.768303959716182
1.3309773403524832
1.5468986037994965
2.7973083085374224
1.9561821927214464
1.1086106660563058
1.8014923323414966
2.4557015335317005
3.074460975051499
1.0957198443579768
1.859501029983978
2.6522865644312197
1.134392309452964
2.2881208514534217
2.2816754406042574
1.5372304875257494
3.0905745021744107
1.4373266193636987
2.9874479285877773
2.494373998626688
1.67902952620737
3.148583199816892
1.5920164797436482
2.2945662623025864
2.9584435797665365
2.429919890135042
3.048679331654841
1.4824444953078508
2.423474479285878
2.323570611123827
1.8949507896543831
2.7006271457999538
1.359981689173724
3.216260013733119
3.216260013733119
3.216260013733119
3.219482719157702
3.216260013733119
3.219482719157702
3.219482719157702
3.216260013733119
3.216260013733119
3.219482719157702
3.216260013733119
3.216260013733119
3.216260013733119
3.216260013733119
3.219482719157702
3.219482719157702
3.216260013733119
3.216260013733119
3.200146486610208
3.1711421377889675
3.1389150835431447
3.1099107347219044
3.084129091325246
3.051902037079423
3.029343099107347
3.0003387502861063
2.9777798123140307
2.951998168917372
2.929439230945296
2.9036575875486377
2.881098649576562
2.8488715953307393
2.839203479056992
2.790862897688258
2.7747493705653463
1.3793179217212175
2.101203936827649
0.5285236896314945
0.8991348134584572
0.5253009842069123
1.1182787823300526
0.5285236896314945
0.544637216754406
0.5349691004806592
0.5510826276035705
0.544637216754406
0.5285236896314945
0.5381918059052415
0.52207827878233
0.5285236896314945
0.5381918059052415
0.5253009842069123
0.5285236896314945
0.5253009842069123
0.5253009842069123
0.5285236896314945
0.52207827878233
0.5188555733577477
0.5188555733577477
0.52207827878233
0.52207827878233
0.52207827878233
0.5188555733577477
0.5188555733577477
0.52207827878233
0.5188555733577477
0.52207827878233
0.5768642710002289
0.5188555733577477
0.895912108033875
0.5156328679331655
0.5188555733577477
0.8540169375143053
0.7251087205310139
0.6477637903410391
1.237518883039597
0.6219821469443808
1.3084184023804073
1.2407415884641795
0.9378072785534447
2.6522865644312197
1.643579766536965
1.9432913710231172
2.7392996108949417
1.102165255207141
1.9110643167772945
2.1624353398947123
0.9249164568551155
1.7757106889448386
2.3654657816433966
2.462146944380865
2.6941817349507895
2.5910551613641566
1.5791256580453192
1.9722957198443578
3.216260013733119
3.216260013733119
2.381579308766308
2.0560860608834974
2.584609750514992
3.216260013733119
3.20336919203479
1.9658503089951933
2.7328542000457765
3.216260013733119
3.219482719157702
2.1721034561684593
2.178548867017624
2.707072556649119
3.219482719157702
3.219482719157702
1.9529594872968643
1.7853788052185853
3.216260013733119
3.0132295719844358
1.769265278095674
1.4598855573357747
2.2623392080567633
2.6103913939116503
1.4985580224307622
1.5694575417715724
2.6232822156099793
2.562050812542916
1.2955275806820783
1.2246280613412681
2.423474479285878
2.359020370794232
1.711256580453193
0.8894666971847104
1.3825406271457998
2.4460334172579534
2.1366536964980547
2.5684962233920805
2.458924238956283
2.030304417486839
0.918471046005951
1.1762874799725338
2.2430029755092695
2.7296314946211946
1.8659464408331423
1.282636758983749
2.052863355458915
1.2278507667658503
2.0109681849393453
2.1398764019226366
2.7296314946211946
1.8304966811627372
1.1601739528496224
2.039972533760586
2.5491599908445868
1.5855710688944837
1.6886976424811169
2.1366536964980547
2.4782604715037766
1.2697459372854198
1.2085145342183565
2.4782604715037766
2.529823758297093
1.282636758983749
1.430881208514534
2.755413138017853
1.985186541542687
1.134392309452964
2.323570611123827
2.668400091554131
1.7434836346990157
1.598461890592813
2.8843213550011444
3.219482719157702
3.216260013733119
3.2130373083085373
2.507264820325017
1.237518883039597
2.2752300297550923
2.584609750514992
1.3116411078049897
1.1247241931792173
1.5791256580453192
0.5188555733577477
0.5994232089723048
1.985186541542687
1.5855710688944837
2.326793316548409
2.6845136186770424
2.152767223620966
3.106688029297322
3.216260013733119
1.827273975738155
1.5597894254978255
2.984225223163195
2.9874479285877773
1.8852826733806363
2.378356603341726
3.206591897459373
2.6716227969787134
1.7531517509727625
2.8488715953307393
3.219482719157702
3.1163561455710687
3.216260013733119
3.216260013733119
3.219482719157702
3.216260013733119
3.216260013733119
3.216260013733119
3.216260013733119
2.5588281071183334
3.216260013733119
3.142137788967727
1.3342000457770655
0.5478599221789884
0.5156328679331655
0.5285236896314945
0.5285236896314945
0.544637216754406
0.8121217669947356
0.5188555733577477
0.544637216754406
1.3084184023804073
0.5285236896314945
0.5381918059052415
1.3374227512016479
1.1505058365758754
0.5285236896314945
1.5565667200732431
1.2278507667658503
0.5317463950560769
0.5188555733577477
0.7960082398718241
2.3332387273975734
1.4212130922407873
1.6177981231403067
3.216260013733119
2.7973083085374224
0.8217898832684825
2.165658045319295
1.9142870222018766
0.9990386816205081
2.0915358205539025
2.246225680933852
1.0054840924696726
1.656470588235294
2.097981231403067
0.7863401235980773
1.6371343556878002
2.1205401693751433
0.8991348134584572
2.0464179446097504
1.9175097276264592
0.8765758754863813
2.317125200274662
2.2301121538109405
0.9668116273746853
1.8917280842298008
2.4202517738612954
1.0409338521400777
1.9884092469672694
2.346129549095903
1.0796063172350652
2.3010116731517507
1.9336232547493706
1.1762874799725338
2.4782604715037766
1.1633966582742046
1.9529594872968643
2.5266010528725107
1.247186999313344
2.0786449988555735
2.562050812542916
1.2052918287937744
1.7886015106431679
1.1440604257267109
2.410583657587549
1.7273701075761043
1.4663309681849392
2.3525749599450676
2.391247425040055
2.043195239185168
2.359020370794232
1.3664271000228883
1.3793179217212175
2.0141908903639276
2.233334859235523
2.0593087663080794
0.9732570382238498
2.4492561226825362
1.2665232318608375
2.8327580682078275
2.4138063630121307
1.179510185397116
1.2020691233691918
1.5275623712520026
1.031265735866331
2.213998626688029
1.6886976424811169
1.3922087434195467
2.7296314946211946
1.9175097276264592
1.2858594644083312
2.9068802929732205
1.994854657816434
1.1279468986037995
2.0464179446097504
2.291343556878004
1.0957198443579768
1.3245319295033189
2.484705882352941
1.8014923323414966
2.3300160219729915
2.3654657816433966
0.8056763561455711
1.485667200732433
2.5781643396658276
1.9078416113527121
2.4202517738612954
2.359020370794232
1.7982696269169145
0.8765758754863813
2.101203936827649
2.9906706340123597
2.2301121538109405
1.8917280842298008
2.7006271457999538
3.216260013733119
2.0206363012130923
2.1269855802243076
3.216260013733119
2.7973083085374224
1.6693614099336231
1.824051270313573
2.9262165255207138
1.8756145571068894
2.6232822156099793
2.6877363241016248
1.4437720302128632
2.0915358205539025
2.9971160448615244
1.8562783245593957
1.5726802471961545
2.929439230945296
2.471815060654612
1.4469947356374455
3.142137788967727
2.7650812542915997
1.8756145571068894
1.057047379262989
1.7724879835202563
2.5266010528725107
1.8176058594644082
1.0731609063859004
1.2761913481345846
2.2720073243305103
2.5684962233920805
2.317125200274662
1.656470588235294
1.408322270542458
2.0464179446097504
2.8746532387273973
2.935884641794461
3.216260013733119
3.219482719157702
3.216260013733119
3.219482719157702
0.5188555733577477
3.219482719157702
3.216260013733119
3.216260013733119
3.216260013733119
3.216260013733119
3.216260013733119
3.216260013733119
3.216260013733119
3.216260013733119
0.9023575188830396
0.5156328679331655
0.5124101625085832
0.5156328679331655
0.5124101625085832
0.5156328679331655
0.5156328679331655
0.5156328679331655
0.5124101625085832
0.5156328679331655
0.5124101625085832
0.5124101625085832
0.5124101625085832
0.5124101625085832
0.5124101625085832
0.5124101625085832
0.5124101625085832
0.6058686198214694
0.5124101625085832
0.6026459143968872
1.5694575417715724
0.8669077592126344
1.3567589837491416
2.7876401922636758
2.6587319752803844
1.3664271000228883
1.4276585030899518
2.2848981460288393
1.7886015106431679
2.072199588006409
3.0712382696269165
3.2130373083085373
3.216260013733119
2.4073609521629664
2.3557976653696495
3.216260013733119
3.216260013733119
3.219482719157702
2.7618585488670173
2.607168688487068
3.216260013733119
3.216260013733119
3.219482719157702
2.6941817349507895
2.2945662623025864
3.1292469672693977
3.216260013733119
3.216260013733119
3.106688029297322
3.216260013733119
2.4041382467383836
2.152767223620966
2.961666285191119
3.216260013733119
3.219482719157702
2.703849851224536
1.9013962005035476
2.5491599908445868
3.216260013733119
2.462146944380865
2.823089951934081
3.2130373083085373
2.0593087663080794
3.216260013733119
2.204330510414282
2.7747493705653463
3.0003387502861063
3.216260013733119
1.5082261387045088
1.4469947356374455
2.368688487067979
3.216260013733119
2.3557976653696495
1.3760952162966353
2.381579308766308
3.0680155642023346
2.291343556878004
1.2729686427100022
2.2365575646601052
2.9133257038223848
1.633911650263218
1.2536324101625085
2.7715266651407644
2.768303959716182
1.5404531929503318
1.098942549782559
1.9336232547493706
2.810199130235752
1.9432913710231172
2.8553170061799036
2.803753719386587
1.517894254978256
1.4598855573357747
2.6587319752803844
2.7618585488670173
1.4534401464866102
1.7853788052185853
1.3180865186541542
1.2278507667658503
1.3632043945983061
2.529823758297093
1.2407415884641795
1.3696498054474708
2.246225680933852
3.13246967269398
2.993893339436942
1.5920164797436482
1.1440604257267109
2.594277866788739
2.7940856031128405
1.4663309681849392
1.3470908674753947
1.4792217898832682
2.8875440604257263
2.781194781414511
1.3922087434195467
1.8788372625314715
3.035788509956512
2.3751338979171432
1.2536324101625085
1.656470588235294
2.823089951934081
2.3364614328221562
1.2633005264362553
2.597500572213321
2.346129549095903
0.9668116273746853
1.9690730144197757
2.697404440375372
1.601684596017395
0.8830212863355458
1.214959945067521
2.297788967727169
2.42669718471046
1.7821560997940031
2.08831311512932
1.746706340123598
0.8797985809109636
0.5156328679331655
1.179510185397116
2.31390249485008
2.3364614328221562
1.057047379262989
1.0473792629892424
2.4138063630121307
2.5813870450904095
1.7982696269169145
1.1988464179446097
1.0602700846875717
1.7595971618219273
2.6909590295262076
2.8746532387273973
2.678068207827878
1.859501029983978
1.1150560769054703
1.5340077821011673
2.320347905699245
2.555605401693751
2.665177386129549
1.9271778439002059
1.2407415884641795
0.8443488212405584
1.4598855573357747
2.368688487067979
2.4975967040512703
2.1108720531013963
1.0377111467154954
0.8636850537880522
1.4469947356374455
3.216260013733119
1.9884092469672694
1.8111604486152437
1.1827328908216983
0.5188555733577477
0.5124101625085832
0.5285236896314945
0.828235294117647
1.5920164797436482
2.0109681849393453
1.9690730144197757
1.9787411306935223
1.4437720302128632
1.0151522087434195
2.1398764019226366
1.869169146257725
2.065754177157244
2.1753261615930417
2.197885099565118
1.9916319523918515
1.089274433508812
0.7444449530785077
0.5704188601510644
0.702549782558938
0.8701304646372168
1.057047379262989
1.1988464179446097
1.4147676813916226
2.097981231403067
2.484705882352941
2.4975967040512703
2.6265049210345617
2.5684962233920805
2.6393957427328907
3.1163561455710687
2.6232822156099793
2.5266010528725107
2.471815060654612
2.3429068436713205
2.2172213321126115
2.0174135957885095
1.7886015106431679
1.7531517509727625
1.4888899061570153
0.8765758754863813
1.8949507896543831
2.0367498283360037
2.1753261615930417
2.6522865644312197
2.861762417029068
2.7973083085374224
2.339684138246738
2.2494483863584347
1.9432913710231172
1.3857633325703822
1.2246280613412681
1.3148638132295718
2.1237628747997253
1.2504097047379261
1.8562783245593957
1.6596932936598765
1.6371343556878002
1.5501213092240786
1.6306889448386357
1.3342000457770655
1.7273701075761043
1.756374456397345
2.1753261615930417
2.5008194094758522
2.655509269855802
2.642618448157473
2.6007232776379032
2.0593087663080794
1.3116411078049897
0.9829251544975967
0.9539208056763561
0.8540169375143053
0.8830212863355458
1.485667200732433
1.9561821927214464
2.4975967040512703
2.0141908903639276
2.6845136186770424
2.439588006408789
2.213998626688029
1.5791256580453192
1.0409338521400777
0.5188555733577477
0.5156328679331655
0.5317463950560769
0.7992309452964065
1.405099565117876
1.3180865186541542
2.0818677042801554
1.8852826733806363
1.4469947356374455
0.5253009842069123
0.5156328679331655
0.5156328679331655
0.5285236896314945
0.7637811856260013
1.0602700846875717
1.6951430533302816
1.7757106889448386
1.756374456397345
2.458924238956283
2.5201556420233464
2.6522865644312197
2.574941634241245
2.339684138246738
2.0109681849393453
1.3019729915312426
1.1440604257267109
0.9539208056763561
1.0409338521400777
0.9668116273746853
1.1827328908216983
1.601684596017395
2.001300068665598
2.471815060654612
2.6522865644312197
2.8488715953307393
2.703849851224536
2.533046463721675
2.6168368047608146
2.1946623941405354
2.0593087663080794
1.8788372625314715
1.4921126115815975
1.9916319523918515
1.601684596017395
1.3889860379949646
1.4373266193636987
2.220444037537194
2.8488715953307393
3.1808102540627146
3.1002426184481573
2.597500572213321
2.31390249485008
1.6403570611123826
1.395431448844129
1.327754634927901
1.6661387045090408
1.981963836118105
2.184994277866789
2.7521904325932707
3.042233920805676
2.6136140993362322
2.1302082856488895
1.3148638132295718
0.7863401235980773
2.0077454795147633
2.562050812542916
0.9539208056763561
1.8885053788052186
1.4373266193636987
1.6081300068665596
1.8433875028610665
2.1592126344701303
2.4975967040512703
2.6232822156099793
2.645841153582055
1.8401647974364843
1.3696498054474708
1.7080338750286106
2.2397802700846876
2.632950331883726
2.7844174868390934
2.7747493705653463
2.529823758297093
2.0174135957885095
2.0496406500343327
1.6500251773861294
1.4276585030899518
1.3180865186541542
1.3309773403524832
1.2568551155870908
1.3148638132295718
3.219482719157702
3.216260013733119
3.216260013733119
3.216260013733119
3.216260013733119
3.216260013733119
3.219482719157702
3.219482719157702
1.1666193636987867
0.6993270771343556
1.2504097047379261
0.5510826276035705
0.6155367360952162
2.184994277866789
3.216260013733119
3.219482719157702
3.216260013733119
3.219482719157702
3.216260013733119
3.219482719157702
2.475037766079194
0.5253009842069123
0.5317463950560769
0.5317463950560769
0.52207827878233
1.67902952620737
3.216260013733119
3.216260013733119
3.216260013733119
3.216260013733119
3.216260013733119
3.0809063859006636
3.216260013733119
3.148583199816892
2.326793316548409
0.5317463950560769
0.5285236896314945
0.5317463950560769
0.5381918059052415
0.5253009842069123
0.5253009842069123
1.2665232318608375
3.216260013733119
3.216260013733119
3.216260013733119
3.216260013733119
3.219482719157702
3.219482719157702
2.3493522545204852
0.5349691004806592
0.5285236896314945
0.5285236896314945
0.5317463950560769
0.9893705653467612
0.52207827878233
0.5317463950560769
0.5285236896314945
0.5285236896314945
0.5317463950560769
0.5349691004806592
0.9216937514305332
1.2020691233691918
0.9764797436484322
0.5285236896314945
0.5285236896314945
0.5285236896314945
0.941029983978027
1.5565667200732431
0.9764797436484322
0.5285236896314945
0.5285236896314945
0.8346807049668116
1.7015884641794459
2.204330510414282
1.994854657816434
1.2729686427100022
0.9345845731288625
0.8894666971847104
0.9829251544975967
1.408322270542458
2.494373998626688
2.0496406500343327
0.9281391622796978
1.1956237125200275
2.1108720531013963
2.8972121766994734
2.8843213550011444
2.2945662623025864
2.8424261844815746
2.9101029983978024
2.861762417029068
2.2494483863584347
1.5694575417715724
1.4212130922407873
1.6693614099336231
2.620059510185397
3.0132295719844358
2.829535362783245
1.6983657587548637
1.5759029526207369
2.5040421149004346
3.042233920805676
2.710295262073701
2.8359807736324103
2.052863355458915
1.4824444953078508
1.7048111696040282
2.3976928358892193
3.216260013733119
3.216260013733119
2.7521904325932707
3.0228976882581824
1.6145754177157243
0.8217898832684825
2.3010116731517507
2.8649851224536507
2.2365575646601052
2.4202517738612954
2.707072556649119
2.371911192492561
1.56623483634699
1.2214053559166858
1.3664271000228883
2.0077454795147633
2.555605401693751
2.3976928358892193
2.391247425040055
1.6403570611123826
1.3793179217212175
2.146321812771801
2.8875440604257263
2.939107347219043
1.8466102082856488
2.08831311512932
3.2130373083085373
3.216260013733119
2.7392996108949417
2.2945662623025864
3.1292469672693977
3.20336919203479
2.323570611123827
1.6468024719615473
1.7338155184252688
2.703849851224536
3.219482719157702
2.703849851224536
1.5952391851682308
2.101203936827649
2.819867246509499
3.035788509956512
2.0818677042801554
1.3760952162966353
1.3406454566262302
2.2301121538109405
2.7006271457999538
2.6297276264591436
1.7982696269169145
1.3857633325703822
1.2794140535591667
1.4534401464866102
1.9271778439002059
2.529823758297093
2.0109681849393453
1.169842069123369
0.8765758754863813
1.057047379262989
1.756374456397345
3.216260013733119
2.7521904325932707
2.7296314946211946
2.259116502632181
1.530785076676585
0.9055802243076219
1.0634927901121538
1.4663309681849392
2.3010116731517507
2.584609750514992
1.8530556191348135
1.0828290226596475
1.5597894254978255
2.6007232776379032
2.5813870450904095
1.9175097276264592
1.3857633325703822
1.7821560997940031
2.4331425955596244
2.7231860837720303
2.2301121538109405
1.5082261387045088
1.1472831311512932
1.5468986037994965
2.462146944380865
2.033527122911421
2.7296314946211946
2.226889448386358
1.3148638132295718
1.1086106660563058
2.2945662623025864
3.216260013733119
3.216260013733119
3.219482719157702
3.216260013733119
3.216260013733119
3.216260013733119
3.216260013733119
3.216260013733119
3.216260013733119
3.216260013733119
2.4492561226825362
2.304234378576333
3.0003387502861063
3.216260013733119
3.17436484321355
2.1592126344701303
1.56623483634699
1.9465140764476996
2.4879285877775232
2.8327580682078275
2.165658045319295
1.4179903868162052
1.1666193636987867
1.15695124742504
1.247186999313344
1.7950469214923324
2.3976928358892193
2.4073609521629664
2.0045227740901805
2.565273517967498
1.2633005264362553
1.8143831540398259
2.31390249485008
1.4663309681849392
0.9313618677042801
0.9829251544975967
1.4018768596932936
2.0593087663080794
2.410583657587549
1.053824673838407
0.5381918059052415
0.5414145113298238
0.5381918059052415
0.5317463950560769
0.5510826276035705
0.5510826276035705
0.8443488212405584
0.5381918059052415
0.5414145113298238
0.5381918059052415
0.5414145113298238
0.544637216754406
0.5478599221789884
0.5414145113298238
0.5414145113298238
0.5510826276035705
0.5414145113298238
1.1505058365758754
1.4115449759670404
0.7122178988326848
0.5381918059052415
0.544637216754406
1.5565667200732431
1.5468986037994965
1.1376150148775461
0.5317463950560769
0.5929777981231402
1.4469947356374455
2.1592126344701303
1.7821560997940031
1.4244357976653697
0.8572396429388875
1.2536324101625085
2.2816754406042574
2.5266010528725107
2.107649347676814
1.2310734721904324
1.7950469214923324
3.216260013733119
3.216260013733119
3.219482719157702
3.219482719157702
3.216260013733119
3.216260013733119
3.216260013733119
3.219482719157702
3.219482719157702
2.9648889906157017
2.2881208514534217
2.268784618905928
2.317125200274662
2.9133257038223848
3.216260013733119
2.7844174868390934
1.882059967956054
2.462146944380865
3.216260013733119
3.209814602883955
2.4911512932021056
1.9078416113527121
1.6145754177157243
1.981963836118105
2.552382696269169
0.9216937514305332
0.5414145113298238
0.5317463950560769
0.5414145113298238
0.5543053330281529
0.5575280384527351
1.0924971389333944
0.9506981002517738
0.5381918059052415
0.5317463950560769
0.5575280384527351
1.0860517280842297
1.3696498054474708
1.0828290226596475
0.5349691004806592
0.5317463950560769
0.6477637903410391
1.408322270542458
1.7241474021515222
1.6725841153582053
1.0344884412909132
1.0151522087434195
1.5050034332799267
1.2858594644083312
1.543675898374914
1.8047150377660792
1.8047150377660792
1.4502174410620279
0.6767681391622797
0.7283314259555962
1.3503135728999769
2.2494483863584347
2.278452735179675
2.2526710917830166
2.1044266422522315
1.6693614099336231
1.0119295033188374
1.3986541542687112
2.4073609521629664
2.2011078049897
1.1601739528496224
1.3148638132295718
2.4492561226825362
2.587832455939574
1.5565667200732431
1.1601739528496224
2.2623392080567633
2.5040421149004346
1.6274662394140536
1.0409338521400777
1.8466102082856488
2.462146944380865
2.1688807507438774
1.3986541542687112
1.1118333714808881
1.962627603570611
2.3622430762188142
1.6983657587548637
1.1859555962462804
2.2172213321126115
2.9036575875486377
2.1817715724422064
0.9797024490730144
1.214959945067521
2.310679789425498
2.5910551613641566
2.1269855802243076
1.0699382009613183
1.1827328908216983
1.292304875257496
2.4492561226825362
2.6297276264591436
1.9175097276264592
1.2633005264362553
1.67902952620737
2.4009155413138017
2.810199130235752
2.6716227969787134
2.7715266651407644
2.584609750514992
1.6822522316319524
1.3503135728999769
1.4663309681849392
2.2848981460288393
2.8005310139620048
2.645841153582055
1.7531517509727625
2.4557015335317005
2.2172213321126115
1.372872510872053
1.405099565117876
2.31390249485008
2.871430533302815
2.1302082856488895
2.6619546807049663
2.2623392080567633
1.8981734950789653
2.7973083085374224
2.6490638590066378
1.7757106889448386
1.485667200732433
1.7853788052185853
2.9133257038223848
2.484705882352941
1.4502174410620279
1.985186541542687
2.777972075989929
2.423474479285878
1.430881208514534
2.220444037537194
2.5781643396658276
1.5468986037994965
1.9336232547493706
2.710295262073701
2.4041382467383836
2.868207827878233
2.2623392080567633
1.3180865186541542
1.8176058594644082
2.6490638590066378
2.587832455939574
1.5759029526207369
1.4147676813916226
2.3751338979171432
2.7231860837720303
1.6758068207827879
1.5501213092240786
3.216260013733119
1.6532478828107118
1.5468986037994965
2.703849851224536
2.5233783474479283
2.2430029755092695
3.216260013733119
3.219482719157702
2.8359807736324103
1.1215014877546348
2.2623392080567633
2.1914396887159535
0.8185671778439001
0.5349691004806592
1.282636758983749
0.5704188601510644
1.8530556191348135
1.0344884412909132
1.2794140535591667
1.67902952620737
1.0796063172350652
0.6380956740672923
0.8604623483634698
2.030304417486839
1.8981734950789653
0.9378072785534447
0.8314579995422293
1.824051270313573
2.220444037537194
1.8788372625314715
1.04415655756466
1.04415655756466
2.1914396887159535
1.3567589837491416
1.0248203250171664
1.2278507667658503
1.981963836118105
2.317125200274662
1.7660425726710915
1.4888899061570153
2.3944701304646374
2.1624353398947123
1.3922087434195467
1.737038223849851
2.4782604715037766
0.5381918059052415
0.5414145113298238
1.3116411078049897
2.423474479285878
2.5588281071183334
1.5952391851682308
1.4953353170061798
2.1882169832913707
2.9004348821240558
2.3976928358892193
1.6210208285648888
2.533046463721675
2.8327580682078275
1.9722957198443578
2.8005310139620048
2.6393957427328907
2.9906706340123597
2.207553215838865
1.4985580224307622
2.1817715724422064
2.942330052643625
3.219482719157702
2.1721034561684593
1.405099565117876
1.6468024719615473
2.5394918745708397
2.7006271457999538
2.3622430762188142
1.4244357976653697
1.7886015106431679
2.5233783474479283
2.4138063630121307
1.9175097276264592
1.3825406271457998
1.1215014877546348
2.291343556878004
2.326793316548409
2.371911192492561
2.417029068436713
2.107649347676814
1.5597894254978255
1.1988464179446097
0.760558480201419
0.9635889219501029
1.2310734721904324
1.5823483634699016
3.216260013733119
2.2623392080567633
1.9690730144197757
1.3245319295033189
1.0924971389333944
1.405099565117876
1.9529594872968643
2.439588006408789
2.4460334172579534
2.1817715724422064
1.656470588235294
1.4373266193636987
1.9884092469672694
1.2761913481345846
1.327754634927901
1.292304875257496
1.746706340123598
2.6007232776379032
2.665177386129549
2.233334859235523
1.56623483634699
1.2987502861066604
2.1398764019226366
3.064792858777752
2.9455527580682075
2.7264087891966122
1.949736781872282
1.5694575417715724
1.869169146257725
2.7973083085374224
2.8488715953307393
1.827273975738155
2.8069764248111695
1.3406454566262302
1.2761913481345846
1.2085145342183565
2.268784618905928
2.620059510185397
2.4331425955596244
1.9594048981460288
1.1956237125200275
1.2987502861066604
1.5404531929503318
1.8562783245593957
2.297788967727169
2.632950331883726
2.423474479285878
1.5372304875257494
2.5233783474479283
2.481483176928359
1.7886015106431679
1.2504097047379261
1.2633005264362553
1.9594048981460288
2.5813870450904095
2.6845136186770424
2.391247425040055
1.643579766536965
1.2794140535591667
1.6951430533302816
1.9368459601739527
1.408322270542458
1.2214053559166858
1.5952391851682308
2.597500572213321
2.826312657358663
2.1592126344701303
1.530785076676585
1.756374456397345
2.655509269855802
1.9980773632410163
1.1053879606317234
1.4341039139391165
2.484705882352941
2.5008194094758522
1.8079377431906614
1.79182421606775
2.2301121538109405
2.6909590295262076
2.645841153582055
1.4469947356374455
0.918471046005951
1.2890821698329138
2.3429068436713205
1.9239551384756237
1.0022613870450903
1.6886976424811169
1.9336232547493706
2.1366536964980547
2.4073609521629664
2.471815060654612
1.1150560769054703
0.9668116273746853
1.9368459601739527
2.3944701304646374
1.3116411078049897
1.1215014877546348
2.1753261615930417
2.4685923552300295
1.5275623712520026
1.179510185397116
2.3300160219729915
2.4460334172579534
1.1472831311512932
2.152767223620966
2.803753719386587
1.7209246967269396
1.237518883039597
1.7789333943694208
2.607168688487068
2.6265049210345617
1.8079377431906614
2.823089951934081
2.6168368047608146
1.7886015106431679
0.7702265964751659
3.216260013733119
2.439588006408789
1.1311696040283816
1.2600778210116732
2.210775921263447
1.8111604486152437
2.9971160448615244
2.5491599908445868
2.803753719386587
1.4921126115815975
2.552382696269169
2.5717189288166624
1.836942092011902
1.2246280613412681
1.543675898374914
2.346129549095903
2.7360769054703593
1.9690730144197757
1.2729686427100022
1.598461890592813
2.320347905699245
2.6103913939116503
2.039972533760586
1.1827328908216983
1.2214053559166858
2.226889448386358
2.423474479285878
2.207553215838865
1.2214053559166858
1.3116411078049897
1.994854657816434
2.4138063630121307
2.1302082856488895
1.1215014877546348
1.7273701075761043
2.565273517967498
2.207553215838865
1.6951430533302816
1.985186541542687
2.929439230945296
2.8746532387273973
2.5459372854200044
2.984225223163195
3.196923781185626
2.4331425955596244
1.7015884641794459
2.114094758525978
3.0390112153810938
2.6393957427328907
1.4437720302128632
1.3309773403524832
1.8756145571068894
1.6403570611123826
0.6380956740672923
0.6252048523689631
1.5501213092240786
1.882059967956054
1.553344014648661
0.8926894026092926
1.7628198672465094
1.0344884412909132
1.1988464179446097
2.210775921263447
2.268784618905928
1.5597894254978255
1.6951430533302816
2.868207827878233
2.391247425040055
1.5146715495536736
1.6468024719615473
2.062531471732662
2.861762417029068
2.710295262073701
1.8176058594644082
1.475999084458686
2.0464179446097504
2.839203479056992
2.7296314946211946
1.6629159990844586
1.4792217898832682
2.2526710917830166
2.8553170061799036
1.7724879835202563
1.3793179217212175
2.810199130235752
2.436365300984207
2.207553215838865
1.4179903868162052
1.5468986037994965
1.8111604486152437
2.803753719386587
2.839203479056992
1.7789333943694208
1.4663309681849392
1.5726802471961545
2.2397802700846876
2.152767223620966
1.3245319295033189
0.5639734493018997
0.6832135500114441
1.2214053559166858
1.9690730144197757
1.7177019913023575
0.9442526894026093
0.9797024490730144
2.3493522545204852
2.8005310139620048
2.9487754634927903
2.9101029983978024
1.9432913710231172
1.6596932936598765
1.5050034332799267
2.1721034561684593
2.210775921263447
1.8949507896543831
1.3116411078049897
1.1440604257267109
1.3503135728999769
1.633911650263218
1.282636758983749
1.8530556191348135
1.4018768596932936
1.031265735866331
0.7122178988326848
0.8250125886930647
1.1279468986037995
1.485667200732433
1.940068665598535
2.08831311512932
1.6274662394140536
1.2020691233691918
1.327754634927901
1.8014923323414966
2.359020370794232
2.665177386129549
2.678068207827878
2.2848981460288393
1.8562783245593957
1.3632043945983061
1.6306889448386357
2.1688807507438774
3.0100068665598534
3.216260013733119
3.216260013733119
0.5317463950560769
0.52207827878233
0.52207827878233
0.52207827878233
0.52207827878233
0.52207827878233
0.5188555733577477
0.5188555733577477
0.5188555733577477
0.5188555733577477
0.52207827878233
0.5188555733577477
0.5188555733577477
0.52207827878233
2.146321812771801
3.216260013733119
3.216260013733119
3.219482719157702
1.1279468986037995
0.5349691004806592
0.52207827878233
0.5188555733577477
0.5285236896314945
1.4502174410620279
2.0367498283360037
1.5114488441290912
3.216260013733119
3.216260013733119
3.216260013733119
0.5253009842069123
0.5414145113298238
1.359981689173724
1.5082261387045088
1.089274433508812
0.8475715266651408
1.4502174410620279
2.368688487067979
3.216260013733119
2.278452735179675
3.2130373083085373
3.06157015335317
3.216260013733119
2.7392996108949417
2.9133257038223848
3.145360494392309
3.216260013733119
3.216260013733119
3.216260013733119
3.216260013733119
3.216260013733119
3.216260013733119
3.216260013733119
3.145360494392309
3.216260013733119
2.9487754634927903
2.213998626688029
1.836942092011902
1.8466102082856488
1.9465140764476996
2.7844174868390934
2.1269855802243076
2.2526710917830166
0.52207827878233
0.52207827878233
0.52207827878233
0.52207827878233
0.5253009842069123
1.102165255207141
3.196923781185626
1.5597894254978255
0.5253009842069123
0.5285236896314945
0.5414145113298238
1.4566628519111924
2.2848981460288393
2.552382696269169
1.985186541542687
1.8659464408331423
3.2130373083085373
3.216260013733119
3.216260013733119
3.219482719157702
3.216260013733119
3.216260013733119
3.200146486610208
3.2130373083085373
3.2130373083085373
3.2130373083085373
3.2130373083085373
3.216260013733119
3.216260013733119
3.216260013733119
2.9068802929732205
2.8553170061799036
3.216260013733119
3.216260013733119
3.1904783703364616
2.8488715953307393
2.620059510185397
2.278452735179675
3.216260013733119
2.3976928358892193
3.1518059052414737
2.935884641794461
2.6232822156099793
2.5394918745708397
2.781194781414511
2.9874479285877773
3.042233920805676
2.868207827878233
2.268784618905928
2.678068207827878
2.7844174868390934
3.055124742504005
3.042233920805676
3.0261203936827648
3.0196749828336005
3.029343099107347
3.1131334401464863
3.103465323872739
2.823089951934081
2.359020370794232
2.2397802700846876
2.974557106889448
2.6232822156099793
1.6081300068665596
1.4888899061570153
2.529823758297093
2.297788967727169
1.7724879835202563
2.0915358205539025
2.974557106889448
2.951998168917372
2.929439230945296
2.9068802929732205
2.8843213550011444
1.5823483634699016
1.0022613870450903
0.8250125886930647
0.6380956740672923
0.6316502632181277
0.6316502632181277
0.6284275577935454
0.6284275577935454
0.6284275577935454
0.6413183794918745
0.6284275577935454
0.6348729686427099
0.6413183794918745
1.3793179217212175
2.4685923552300295
0.6187594415197984
0.6155367360952162
0.6187594415197984
0.6219821469443808
1.3760952162966353
