

 begin log for calibration v12021-02-172.755413138017853
1.6306889448386357
0.9764797436484322
1.1440604257267109
1.3374227512016479
1.485667200732433
2.207553215838865
2.0689768825818264
2.3300160219729915
2.3332387273975734
2.0141908903639276
1.8401647974364843
1.5372304875257494
1.2310734721904324
1.1988464179446097
0.9216937514305332
2.1205401693751433
3.1292469672693977
2.974557106889448
2.758635843442435
2.5813870450904095
2.1753261615930417
1.2439642938887616
1.066715495536736
0.9861478599221789
1.2181826504921034
1.395431448844129
1.7595971618219273
1.6081300068665596
1.7402609292744335
2.339684138246738
2.033527122911421
1.5468986037994965
1.2858594644083312
1.15695124742504
1.0248203250171664
1.0280430304417487
2.114094758525978
2.2881208514534217
2.3300160219729915
2.462146944380865
2.0915358205539025
1.598461890592813
1.1440604257267109
1.3406454566262302
1.053824673838407
1.0699382009613183
1.408322270542458
2.4202517738612954
2.5717189288166624
2.5201556420233464
2.7328542000457765
2.710295262073701
1.5855710688944837
1.4179903868162052
1.5823483634699016
1.6371343556878002
1.7177019913023575
2.114094758525978
3.148583199816892
3.1518059052414737
3.0809063859006636
2.971334401464866
3.093797207598993
2.001300068665598
1.6468024719615473
1.6596932936598765
1.5726802471961545
1.4695536736095216
2.42669718471046
2.2430029755092695
2.1205401693751433
2.0109681849393453
2.101203936827649
2.555605401693751
1.5823483634699016
1.3922087434195467
1.3438681620508124
1.8885053788052186
1.7724879835202563
1.643579766536965
1.56623483634699
1.6629159990844586
1.7273701075761043
1.6629159990844586
2.346129549095903
1.1762874799725338
0.9249164568551155
1.0022613870450903
1.521116960402838
1.6210208285648888
1.6951430533302816
1.7177019913023575
1.8143831540398259
1.9175097276264592
2.3429068436713205
2.0270817120622566
1.1730647745479514
0.6348729686427099
0.9152483405813686
1.5468986037994965
2.0496406500343327
2.0045227740901805
1.962627603570611
1.746706340123598
1.6693614099336231
2.2236667429617762
1.4469947356374455
1.179510185397116
1.0087067978942548
0.9700343327992675
1.5694575417715724
1.7886015106431679
1.588793774319066
1.5855710688944837
1.6661387045090408
1.9432913710231172
2.2623392080567633
1.211737239642939
1.8659464408331423
2.326793316548409
2.587832455939574
2.4331425955596244
2.3525749599450676
2.1817715724422064
2.1108720531013963
2.2301121538109405
2.3364614328221562
2.4202517738612954
2.555605401693751
2.8456488899061565
2.839203479056992
3.0261203936827648
3.048679331654841
2.9326619363698785
2.9101029983978024
2.703849851224536
2.4202517738612954
1.6725841153582053
1.7531517509727625
2.1173174639505605
1.9529594872968643
2.1173174639505605
1.994854657816434
1.756374456397345
1.962627603570611
2.052863355458915
1.7886015106431679
1.8047150377660792
2.0270817120622566
1.1215014877546348
1.3342000457770655
1.6758068207827879
3.1518059052414737
2.297788967727169
2.317125200274662
2.1753261615930417
1.79182421606775
1.8047150377660792
2.1366536964980547
2.439588006408789
1.098942549782559
0.7895628290226596
0.5704188601510644
1.053824673838407
1.5050034332799267
1.2794140535591667
1.5597894254978255
1.3503135728999769
1.2246280613412681
1.4631082627603569
0.4705149919890135
0.4737376974135958
0.8862439917601281
1.2858594644083312
1.4437720302128632
1.5372304875257494
1.1215014877546348
1.5694575417715724
1.2407415884641795
1.1827328908216983
1.517894254978256
1.3470908674753947
1.6210208285648888
1.1440604257267109
1.553344014648661
1.247186999313344
1.543675898374914
1.2246280613412681
1.4244357976653697
1.2665232318608375
1.6693614099336231
1.214959945067521
1.6145754177157243
1.2729686427100022
1.6886976424811169
1.2890821698329138
1.7015884641794459
1.3148638132295718
1.6403570611123826
1.601684596017395
1.3148638132295718
1.7628198672465094
1.4341039139391165
1.7821560997940031
1.3664271000228883
1.5791256580453192
1.6629159990844586
1.4502174410620279
1.5050034332799267
1.5501213092240786
1.395431448844129
1.714479285877775
1.6177981231403067
1.4437720302128632
1.8047150377660792
1.359981689173724
1.6983657587548637
1.5243396658274204
1.7982696269169145
1.3342000457770655
1.7628198672465094
1.6081300068665596
1.882059967956054
1.4212130922407873
1.8079377431906614
1.5468986037994965
1.7724879835202563
1.67902952620737
1.588793774319066
1.90461890592813
1.530785076676585
1.9690730144197757
1.5146715495536736
1.9336232547493706
1.56623483634699
1.8788372625314715
1.7241474021515222
1.6854749370565345
1.8885053788052186
1.5243396658274204
1.6306889448386357
1.9722957198443578
1.5759029526207369
1.9465140764476996
1.598461890592813
1.940068665598535
1.756374456397345
1.8337193865873196
1.8949507896543831
1.7531517509727625
2.033527122911421
1.6919203479056992
2.043195239185168
1.7241474021515222
2.0045227740901805
1.643579766536965
2.033527122911421
1.6274662394140536
1.6532478828107118
1.985186541542687
1.5243396658274204
2.0367498283360037
1.5726802471961545
1.9980773632410163
1.56623483634699
1.9722957198443578
1.4921126115815975
2.3654657816433966
2.265561913481346
1.9594048981460288
1.3438681620508124
1.6371343556878002
1.656470588235294
1.56623483634699
1.824051270313573
1.475999084458686
1.9336232547493706
1.5050034332799267
1.90461890592813
1.5017807278553443
1.8079377431906614
1.7434836346990157
1.6081300068665596
1.8530556191348135
1.5114488441290912
1.9271778439002059
1.485667200732433
1.9207324330510414
1.588793774319066
1.6951430533302816
2.2623392080567633
1.134392309452964
1.656470588235294
1.3825406271457998
1.4824444953078508
1.714479285877775
1.521116960402838
2.9101029983978024
1.5726802471961545
1.4953353170061798
1.6532478828107118
1.3213092240787365
1.8788372625314715
1.6210208285648888
1.5275623712520026
1.9722957198443578
1.5501213092240786
1.7724879835202563
1.9755184252689402
1.5823483634699016
1.7886015106431679
1.9529594872968643
1.588793774319066
1.9529594872968643
1.8466102082856488
1.5759029526207369
2.1108720531013963
1.746706340123598
1.7660425726710915
2.1592126344701303
1.711256580453193
1.7177019913023575
2.155989929045548
1.8176058594644082
1.7660425726710915
2.085090409704738
1.7724879835202563
1.6693614099336231
2.062531471732662
1.6886976424811169
1.7660425726710915
2.0593087663080794
1.6210208285648888
1.9013962005035476
2.0593087663080794
1.6725841153582053
1.8466102082856488
2.0754222934309907
1.6886976424811169
1.6371343556878002
2.0238590066376747
1.8143831540398259
1.598461890592813
2.0464179446097504
1.7434836346990157
1.5372304875257494
1.9271778439002059
1.7821560997940031
1.5082261387045088
1.869169146257725
1.7982696269169145
1.4566628519111924
1.7886015106431679
1.949736781872282
1.6113527122911422
1.530785076676585
1.9175097276264592
1.8659464408331423
1.5275623712520026
1.8852826733806363
1.9561821927214464
1.5823483634699016
1.7015884641794459
1.9980773632410163
1.6629159990844586
1.5791256580453192
1.9594048981460288
1.8530556191348135
1.5630121309224079
1.7080338750286106
2.0045227740901805
3.1131334401464863
3.1518059052414737
3.148583199816892
3.148583199816892
3.148583199816892
3.1163561455710687
0.895912108033875
0.7927855344472419
0.7541130693522544
2.8746532387273973
3.148583199816892
3.148583199816892
3.148583199816892
3.148583199816892
3.148583199816892
3.148583199816892
3.148583199816892
1.6403570611123826
0.2964888990615701
0.2964888990615701
2.0077454795147633
2.839203479056992
2.993893339436942
2.861762417029068
2.4428107118333715
3.119578850995651
1.711256580453193
0.2997116044861524
0.2997116044861524
0.2997116044861524
1.2439642938887616
2.0464179446097504
2.146321812771801
2.0754222934309907
2.3880247196154722
3.06157015335317
2.101203936827649
0.2997116044861524
0.2997116044861524
0.2964888990615701
0.2964888990615701
0.29326619363698786
2.3074570840009154
2.8456488899061565
2.7844174868390934
2.645841153582055
2.4782604715037766
0.4737376974135958
0.2997116044861524
0.2997116044861524
0.2997116044861524
0.2997116044861524
2.265561913481346
2.839203479056992
2.823089951934081
2.7264087891966122
2.823089951934081
1.9690730144197757
0.2997116044861524
0.2997116044861524
0.2997116044861524
0.2964888990615701
0.2997116044861524
2.2494483863584347
3.148583199816892
3.148583199816892
3.1518059052414737
2.984225223163195
0.8701304646372168
0.2997116044861524
0.2997116044861524
0.2997116044861524
0.2997116044861524
1.8949507896543831
3.148583199816892
3.148583199816892
3.1518059052414737
2.823089951934081
3.148583199816892
1.9884092469672694
0.3029343099107347
0.2997116044861524
0.2997116044861524
0.5381918059052415
2.0496406500343327
3.051902037079423
3.106688029297322
3.055124742504005
3.148583199816892
2.8520943007553217
3.148583199816892
0.8830212863355458
0.37383382925154496
0.567196154726482
0.2997116044861524
0.8475715266651408
2.6490638590066378
2.6393957427328907
2.7006271457999538
3.06157015335317
2.858539711604486
2.9648889906157017
1.0796063172350652
0.2997116044861524
0.3029343099107347
0.2997116044861524
1.2858594644083312
2.8649851224536507
3.148583199816892
2.890766765850309
3.1518059052414737
3.148583199816892
0.5253009842069123
0.2997116044861524
0.3641657129777981
0.3029343099107347
1.7080338750286106
3.148583199816892
3.119578850995651
3.148583199816892
3.1518059052414737
3.155028610666056
0.3802792401007095
0.2997116044861524
0.2997116044861524
0.3029343099107347
2.291343556878004
2.893989471274891
3.148583199816892
3.029343099107347
3.0132295719844358
2.8843213550011444
0.2997116044861524
0.2997116044861524
0.3029343099107347
0.3029343099107347
0.6058686198214694
2.552382696269169
3.155028610666056
3.148583199816892
3.1131334401464863
3.148583199816892
2.707072556649119
0.32871595330739295
0.3029343099107347
0.2997116044861524
0.47696040283817803
0.2997116044861524
1.8208285648889906
3.148583199816892
3.1518059052414737
3.1518059052414737
3.1518059052414737
2.4653696498054476
0.2997116044861524
0.2997116044861524
0.43828793774319064
0.2997116044861524
1.5340077821011673
3.148583199816892
2.8843213550011444
3.087351796749828
2.8972121766994734
3.1518059052414737
1.4373266193636987
0.3029343099107347
0.2997116044861524
0.2997116044861524
0.2997116044861524
2.4428107118333715
3.148583199816892
2.993893339436942
3.148583199816892
3.1518059052414737
1.4179903868162052
0.3029343099107347
0.2997116044861524
0.3835019455252918
0.2997116044861524
1.985186541542687
3.148583199816892
3.097019913023575
3.148583199816892
2.984225223163195
2.8359807736324103
0.5188555733577477
0.3029343099107347
0.3029343099107347
0.41895170519569697
0.2997116044861524
0.5381918059052415
0.5704188601510644
0.3093797207598992
0.6574319066147859
0.5865323872739757
1.4695536736095216
2.0915358205539025
1.3696498054474708
1.6822522316319524
1.1924010070954452
1.0344884412909132
1.8401647974364843
1.981963836118105
