threshold score	650.2697289139342	current time:	2021-04-01_17:26:51.580060
time(s)	neutral(raw)	distress(raw)	frequency(Hz)	neutral(mag)	distress(mag)	weighted profile
0	0.9539208056763561	0.42390194075587345	0.0	8095.719624628061	8098.700627145799	0.42390194075587345
0.002	0.0612314030670634	0.5730337078651687	0.1	15.895660945408231	26.392400382695115	0.5730337078651687
0.004	2.458924238956283	0.0	0.2	3.610228720264167	9.924781147812991	0.0
0.006	3.2130373083085373	0.0	0.30000000000000004	5.943649590254143	11.39908950594966	0.0
0.008	1.1762874799725338	0.5689479060265578	0.4	7.18433426204299	13.71236369851583	0.5689479060265578
0.01	0.0612314030670634	0.9979570990806946	0.5	11.410040745478792	5.961629210433149	0.9979570990806946
0.012	1.56623483634699	0.0	0.6000000000000001	15.319876559189316	16.510753248102446	0.0
0.014	3.2130373083085373	0.0	0.7000000000000001	11.438491436705382	9.57894807989054	0.0
0.016	1.981963836118105	0.1511746680286006	0.8	12.477944282413304	8.886814980603193	0.1511746680286006
0.018000000000000002	0.0612314030670634	0.9979570990806946	0.9	7.164058714503155	5.7225710688743945	0.9979570990806946
0.020000000000000004	0.06767681391622797	0.42696629213483145	1.0	18.240488150926463	11.939570364047466	0.42696629213483145
0.022000000000000006	3.1356923781185624	0.0	1.1	9.571821120955326	3.3650454697370327	0.0
0.024000000000000007	3.216260013733119	0.0	1.2000000000000002	12.773255982763843	10.596973708252078	0.0
0.02600000000000001	0.3641657129777981	0.8079673135852913	1.3	9.106419485850534	10.875484638220094	0.8079673135852913
0.02800000000000001	0.0612314030670634	0.9979570990806946	1.4000000000000001	6.495621473211081	16.411680370742246	0.9979570990806946
0.030000000000000013	1.7724879835202563	0.0	1.5	10.900318783347325	13.515269964992626	0.0
0.032000000000000015	3.209814602883955	0.0	1.6	4.864093636772822	8.469387919129753	0.0
0.034000000000000016	2.5362691691462578	0.0	1.7000000000000002	15.913113862972383	3.728498248690988	0.0
0.03600000000000002	0.0612314030670634	0.9969356486210421	1.8	14.831912059497952	8.552841908299337	0.9969356486210421
0.03800000000000002	0.0612314030670634	0.9989785495403474	1.9000000000000001	7.576769613713075	14.55319025482408	0.9989785495403474
0.04000000000000002	2.462146944380865	0.0	2.0	7.99421517221175	9.925045108645035	0.0
0.04200000000000002	3.2130373083085373	0.0	2.1	14.508885141763894	23.170235492960913	0.0
0.044000000000000025	1.5952391851682308	0.11746680286006124	2.2	3.863324692074502	7.209508358812976	0.11746680286006124
0.04600000000000003	0.0612314030670634	0.9989785495403474	2.3000000000000003	20.48711373931535	30.777306362628117	0.9989785495403474
0.04800000000000003	0.06767681391622797	0.8212461695607765	2.4000000000000004	7.959501680473392	6.216715651453824	0.8212461695607765
0.05000000000000003	2.9068802929732205	0.0	2.5	12.1061875871749	21.170808822260433	0.0
0.05200000000000003	3.209814602883955	0.0	2.6	2.6593368165450997	19.12893200897777	0.0
0.054000000000000034	0.8604623483634698	0.5372829417773238	2.7	7.0665754543195725	11.095289852574016	0.5372829417773238
0.056000000000000036	0.0612314030670634	0.9989785495403474	2.8000000000000003	20.398960563585142	6.9272186880153415	0.9989785495403474
0.05800000000000004	1.053824673838407	0.2124616956077631	2.9000000000000004	2.48650679793388	26.01386056157099	0.2124616956077631
0.06000000000000004	3.206591897459373	0.0	3.0	12.768424160353577	18.42062576270829	0.0
0.06200000000000004	3.196923781185626	0.0	3.1	12.973008473931312	14.614821882445622	0.0
0.06400000000000004	0.23848020141908902	0.8314606741573034	3.2	24.725474584841415	10.749226551706787	0.8314606741573034
0.06600000000000004	0.0612314030670634	0.9989785495403474	3.3000000000000003	8.854846748514827	15.862764862993423	0.9989785495403474
0.06800000000000005	1.9175097276264592	0.0	3.4000000000000004	19.183700850068398	24.21938201606143	0.0
0.07000000000000005	3.2130373083085373	0.0	3.5	6.5339127831255235	16.413225053995586	0.0
0.07200000000000005	2.2172213321126115	0.0	3.6	19.25734189587747	9.005465507998911	0.0
0.07400000000000005	0.0612314030670634	0.9918283963227785	3.7	14.14821697439525	22.007171206619557	0.9918283963227785
0.07600000000000005	0.0612314030670634	0.9989785495403474	3.8000000000000003	23.954529771721642	13.346563854574402	0.9989785495403474
0.07800000000000006	2.529823758297093	0.0	3.9000000000000004	16.306672588774543	2.4485521801017716	0.0
0.08000000000000006	3.209814602883955	0.0	4.0	13.298315118468699	7.196203539193896	0.0
0.08200000000000006	0.8314579995422293	0.32992849846782435	4.1000000000000005	9.67247158453192	8.38372601116716	0.32992849846782435
0.08400000000000006	0.0612314030670634	0.9979570990806946	4.2	19.71893339140895	9.283318772706721	0.9979570990806946
0.08600000000000006	0.6284275577935454	0.6414708886618999	4.3	9.083739494662392	13.461391425669255	0.6414708886618999
0.08800000000000006	3.103465323872739	0.0	4.4	26.06794191201108	8.775933484770524	0.0
0.09000000000000007	3.209814602883955	0.0	4.5	21.893796664430976	21.57827306413845	0.0
0.09200000000000007	0.6735454337376974	0.55464759959142	4.6000000000000005	8.737119513961881	13.136260531596228	0.55464759959142
0.09400000000000007	0.0612314030670634	0.9989785495403474	4.7	8.838541499472216	8.725784185834245	0.9989785495403474
0.09600000000000007	1.0377111467154954	0.22982635342185911	4.800000000000001	15.439995693883873	8.893193748766183	0.22982635342185911
0.09800000000000007	3.1937010757610436	0.0	4.9	7.239891617543742	23.432399168271854	0.0
0.10000000000000007	3.209814602883955	0.0	5.0	22.603364317937583	13.462389048050321	0.0
0.10200000000000008	0.5768642710002289	0.6956077630234935	5.1000000000000005	17.66317543371783	18.539436875901146	0.6956077630234935
0.10400000000000008	0.0612314030670634	0.9989785495403474	5.2	14.523782089182816	21.299070278552254	0.9989785495403474
0.10600000000000008	1.292304875257496	0.0	5.300000000000001	20.50627862916507	16.534493351430495	0.0
0.10800000000000008	3.206591897459373	0.0	5.4	8.76393151318062	15.789915706397023	0.0
0.11000000000000008	3.196923781185626	0.0	5.5	10.650952385798483	17.554282821471947	0.0
0.11200000000000009	0.3802792401007095	0.8447395301327888	5.6000000000000005	9.86462989371286	8.789394144861069	0.8447395301327888
0.11400000000000009	0.0612314030670634	0.9979570990806946	5.7	12.704346324994333	6.073632860004379	0.9979570990806946
0.11600000000000009	1.4631082627603569	0.0	5.800000000000001	7.359302532596118	13.692835165691355	0.0
0.11800000000000009	3.209814602883955	0.0	5.9	11.629154142568186	12.774421526871617	0.0
0.12000000000000009	3.1937010757610436	0.0	6.0	12.923102659383241	18.631779141791363	0.0
0.1220000000000001	0.2223666742961776	0.9458631256384068	6.1000000000000005	16.358207994495114	22.435260323723494	0.9458631256384068
0.1240000000000001	0.0612314030670634	0.9938712972420839	6.2	31.61100183003105	14.681545778564377	0.9938712972420839
0.12600000000000008	1.7531517509727625	0.0	6.300000000000001	26.415235044585597	16.17517165912732	0.0
0.12800000000000009	3.209814602883955	0.0	6.4	30.34614211813183	26.164783085470244	0.0
0.1300000000000001	2.7425223163195236	0.0	6.5	16.713591305118364	12.12347934311729	0.0
0.1320000000000001	0.09990386816205081	0.9867211440245149	6.6000000000000005	9.327561365846709	15.658295985537046	0.9867211440245149
0.1340000000000001	0.0612314030670634	0.6537282941777325	6.7	11.33358764620256	28.850303330843385	0.6537282941777325
0.1360000000000001	2.1205401693751433	0.0	6.800000000000001	18.757319303217916	42.824518966114546	0.0
0.1380000000000001	3.2130373083085373	0.0	6.9	11.504162566264943	23.00417648298351	0.0
0.1400000000000001	2.3429068436713205	0.06230847803881508	7.0	11.491020636716897	55.95288581520021	0.06230847803881508
0.1420000000000001	0.0612314030670634	0.9989785495403474	7.1000000000000005	19.21345004995361	62.8907999687692	0.9989785495403474
0.1440000000000001	0.0612314030670634	0.5781409601634322	7.2	4.309360100248647	41.412096876995044	0.5781409601634322
0.1460000000000001	2.417029068436713	0.0	7.300000000000001	39.127501567479165	28.47940458169948	0.0
0.1480000000000001	3.2130373083085373	0.0	7.4	20.091181451185204	14.026663485842077	0.0
0.1500000000000001	2.1173174639505605	0.10827374872318701	7.5	23.563224437319104	47.40630902821699	0.10827374872318701
0.1520000000000001	0.0612314030670634	0.9989785495403474	7.6000000000000005	25.909251324128363	48.07773827200417	0.9989785495403474
0.1540000000000001	0.0612314030670634	0.5781409601634322	7.7	8.267609532370273	37.36230042134405	0.5781409601634322
0.1560000000000001	2.562050812542916	0.0	7.800000000000001	21.144993983181088	33.27462269595957	0.0
0.1580000000000001	3.2130373083085373	0.0	7.9	7.960757903444744	36.12971963218833	0.0
0.16000000000000011	1.7821560997940031	0.2390194075587335	8.0	24.718099477943547	11.228704719444366	0.2390194075587335
0.16200000000000012	0.06445410849164569	0.9979570990806946	8.1	14.02197896167179	22.08824032620683	0.9979570990806946
0.16400000000000012	0.0612314030670634	0.5607763023493362	8.200000000000001	18.882014137111792	27.865724316481863	0.5607763023493362
0.16600000000000012	2.665177386129549	0.0	8.3	8.118129092231749	19.70680514804124	0.0
0.16800000000000012	3.2130373083085373	0.0	8.4	23.661919247641517	33.31230774850804	0.0
0.17000000000000012	1.4953353170061798	0.3258426966292135	8.5	27.57049838906689	51.41183669284155	0.3258426966292135
0.17200000000000013	0.0612314030670634	0.9989785495403474	8.6	10.03076904840893	41.86861306585615	0.9989785495403474
0.17400000000000013	0.06767681391622797	0.5832482124616957	8.700000000000001	13.94164619962738	35.983362007421896	0.5832482124616957
0.17600000000000013	2.7876401922636758	0.0	8.8	5.6008388241274805	26.13496136572984	0.0
0.17800000000000013	3.2130373083085373	0.0	8.9	29.671348322789893	25.458075173460976	0.0
0.18000000000000013	1.2407415884641795	0.372829417773238	9.0	16.364668610108673	28.240123556489447	0.372829417773238
0.18200000000000013	0.0612314030670634	0.9989785495403474	9.1	51.18737514439951	9.47997965652678	0.9989785495403474
0.18400000000000014	0.06767681391622797	0.6414708886619	9.200000000000001	28.05477918602255	4.703512509615156	0.6414708886619
0.18600000000000014	2.981002517738613	0.0	9.3	25.11424283220393	4.669401523290986	0.0
0.18800000000000014	3.2130373083085373	0.0	9.4	7.048646858324674	27.121732050951074	0.0
0.19000000000000014	1.1086106660563058	0.4014300306435138	9.5	43.456544908964055	17.69370785854222	0.4014300306435138
0.19200000000000014	0.0612314030670634	0.9989785495403474	9.600000000000001	45.17827158275046	23.83944433329473	0.9989785495403474
0.19400000000000014	0.5543053330281529	0.24208375893769155	9.700000000000001	19.58155621908805	12.294456499105587	0.24208375893769155
0.19600000000000015	3.084129091325246	0.0	9.8	46.50580210296612	3.80447962448808	0.0
0.19800000000000015	3.209814602883955	0.0	9.9	19.180684055659366	14.64012662702874	0.0
0.20000000000000015	0.8443488212405584	0.6956077630234935	10.0	45.64662167771085	2.9900101426387957	0.6956077630234935
0.20200000000000015	0.0612314030670634	0.9979570990806946	10.100000000000001	58.619840975737745	7.67953720465588	0.9979570990806946
0.20400000000000015	0.9442526894026093	0.0	10.200000000000001	51.91183165316554	13.696162569999844	0.0
0.20600000000000016	3.196923781185626	0.0	10.3	51.45199458352032	4.219312739490243	0.0
0.20800000000000016	3.209814602883955	0.0	10.4	46.05766287166103	7.908236102561534	0.0
0.21000000000000016	0.6026459143968872	0.82635342185904	10.5	36.34048737966846	10.28683627971742	0.82635342185904
0.21200000000000016	0.0612314030670634	0.9979570990806946	10.600000000000001	27.24427965820612	2.5099699588378743	0.9979570990806946
0.21400000000000016	1.372872510872053	0.0	10.700000000000001	23.516463218072268	5.7528609747111314	0.0
0.21600000000000016	3.206591897459373	0.0	10.8	8.084038728127886	5.72782509155131	0.0
0.21800000000000017	3.200146486610208	0.0	10.9	15.939534697446954	9.418576498318536	0.0
0.22000000000000017	0.3544975967040513	0.9050051072522983	11.0	16.988580197611817	10.150107473986589	0.9050051072522983
0.22200000000000017	0.0612314030670634	0.9887640449438204	11.100000000000001	7.2234771003599825	7.866541524194254	0.9887640449438204
0.22400000000000017	1.6081300068665596	0.0	11.200000000000001	16.08788946898262	14.704393517280417	0.0
0.22600000000000017	3.209814602883955	0.0	11.3	9.578515814327197	13.574062137002446	0.0
0.22800000000000017	3.1904783703364616	0.0	11.4	11.913044906131278	12.406090514239418	0.0
0.23000000000000018	0.20625314717326618	0.9530132788559756	11.5	14.07873360856687	6.163048885090016	0.9530132788559756
0.23200000000000018	0.0612314030670634	0.6598569969356487	11.600000000000001	1.8742860979446023	9.748508661732046	0.6598569969356487
0.23400000000000018	1.9432913710231172	0.0	11.700000000000001	9.057264651684052	7.790399954291152	0.0
0.23600000000000018	3.209814602883955	0.0	11.8	6.514774867417087	9.666717172236138	0.0
0.23800000000000018	2.8134218356603338	0.0	11.9	11.813040817593999	12.158403138844	0.0
0.24000000000000019	0.1450217441062028	0.9724208375893771	12.0	22.837703925453866	14.044763203957439	0.9724208375893771
0.2420000000000002	0.0612314030670634	0.41879468845760986	12.100000000000001	6.03286615402504	3.986639409065322	0.41879468845760986
0.2440000000000002	2.197885099565118	0.0	12.200000000000001	10.578239833343028	2.6506804290647796	0.0
0.2460000000000002	3.2130373083085373	0.0	12.3	17.03520259737004	4.715207297883089	0.0
0.2480000000000002	2.5588281071183334	0.08886618998978553	12.4	3.896392459140936	4.664769331701803	0.08886618998978553
0.25000000000000017	0.06445410849164569	0.9979570990806946	12.5	7.042918858099436	9.584315145685501	0.9979570990806946
0.25200000000000017	0.0612314030670634	0.39836567926455574	12.600000000000001	14.38055093169302	12.409820741614192	0.39836567926455574
0.25400000000000017	2.371911192492561	0.0	12.700000000000001	5.366224911298337	8.200357828767368	0.0
0.25600000000000017	3.209814602883955	0.0	12.8	5.7735090005417975	10.934311409281888	0.0
0.2580000000000002	1.981963836118105	0.323799795709908	12.9	9.29428871391279	7.099411137772282	0.323799795709908
0.2600000000000002	0.06445410849164569	0.9969356486210419	13.0	12.562878831379326	17.434851784132338	0.9969356486210419
0.2620000000000002	0.0612314030670634	0.3268641470888663	13.100000000000001	12.701629799761312	8.346407154989057	0.3268641470888663
0.2640000000000002	2.597500572213321	0.0	13.200000000000001	5.04640410567066	3.3999002476763427	0.0
0.2660000000000002	3.2130373083085373	0.0	13.3	12.111916865438534	6.105999515337519	0.0
0.2680000000000002	1.7080338750286106	0.47599591419816145	13.4	4.744630734271074	11.737789838823621	0.47599591419816145
0.2700000000000002	0.0612314030670634	0.9979570990806946	13.5	0.5351930300029601	4.991078240142137	0.9979570990806946
0.2720000000000002	0.06767681391622797	0.18181818181818185	13.600000000000001	15.42497004175097	8.082767247688288	0.18181818181818185
0.2740000000000002	2.777972075989929	0.0	13.700000000000001	12.425523793903565	6.9937997338504765	0.0
0.2760000000000002	3.2130373083085373	0.0	13.8	15.182881386060489	3.93634594885271	0.0
0.2780000000000002	1.4824444953078508	0.5464759959141983	13.9	4.178638499897088	2.6535931640393633	0.5464759959141983
0.2800000000000002	0.0612314030670634	0.9969356486210421	14.0	19.946169305767583	8.338808547766888	0.9969356486210421
0.2820000000000002	0.06767681391622797	0.1195097037793667	14.100000000000001	7.047748868695615	3.756113875330397	0.1195097037793667
0.2840000000000002	2.890766765850309	0.0	14.200000000000001	9.426021855112722	5.802822637267598	0.0
0.2860000000000002	3.209814602883955	0.0	14.3	1.1117079766020619	7.283348803847101	0.0
0.2880000000000002	1.1247241931792173	0.6608784473953014	14.4	27.756177230980654	16.13249057293449	0.6608784473953014
0.2900000000000002	0.0612314030670634	0.9938712972420839	14.5	5.497321984658386	14.41764706747078	0.9938712972420839
0.2920000000000002	0.06767681391622797	0.0888661899897855	14.600000000000001	3.9791191028581783	18.050379951901068	0.0888661899897855
0.2940000000000002	2.9777798123140307	0.0	14.700000000000001	16.945883484442632	15.191798386295725	0.0
0.2960000000000002	3.209814602883955	0.0	14.8	12.771102697278907	9.358974245423882	0.0
0.2980000000000002	0.8379034103913939	0.7517875383043923	14.9	7.136366170166076	12.318929682727774	0.7517875383043923
0.3000000000000002	0.0612314030670634	0.9938712972420839	15.0	14.669766901637617	21.326902991728304	0.9938712972420839
0.3020000000000002	0.8250125886930647	0.0	15.100000000000001	8.277971320772576	15.620814730729931	0.0
0.3040000000000002	3.17436484321355	0.0	15.200000000000001	9.741349119194505	7.724066079459663	0.0
0.3060000000000002	3.209814602883955	0.0	15.3	8.700901744723271	15.79750708572112	0.0
0.3080000000000002	0.7573357747768368	0.77732379979571	15.4	3.0682631328187315	16.54676351835525	0.77732379979571
0.3100000000000002	0.0612314030670634	0.30234933605720127	15.5	15.028497823223383	12.914519286409865	0.30234933605720127
0.3120000000000002	1.2214053559166858	0.0	15.600000000000001	3.281069728916386	7.208737319711941	0.0
0.3140000000000002	3.206591897459373	0.0	15.700000000000001	9.916690467666413	12.516729458645598	0.0
0.3160000000000002	3.209814602883955	0.0	15.8	3.3307845259056816	15.100025196807394	0.0
0.3180000000000002	0.5607507438773174	0.8396322778345251	15.9	5.1838130445401704	7.1978565972494755	0.8396322778345251
0.32000000000000023	0.0612314030670634	0.2349336057201226	16.0	2.933452640512301	11.118362504375028	0.2349336057201226
0.32200000000000023	1.5017807278553443	0.0	16.1	4.98678216230072	16.578159323350107	0.0
0.32400000000000023	3.209814602883955	0.0	16.2	7.728951689218537	10.37444888494638	0.0
0.32600000000000023	3.196923781185626	0.004085801838610786	16.3	7.99049258546381	18.9017998732936	0.004085801838610786
0.32800000000000024	0.26426184481574727	0.9336057201225741	16.400000000000002	13.828742263151433	41.59525753953587	0.9336057201225741
0.33000000000000024	0.0612314030670634	0.18386108273748725	16.5	13.939585502089201	37.366919517489805	0.18386108273748725
0.33200000000000024	1.7853788052185853	0.0	16.6	14.104488530610755	16.89107250959308	0.0
0.33400000000000024	3.209814602883955	0.0	16.7	4.1023056704506455	18.81698791044396	0.0
0.33600000000000024	2.9262165255207138	0.08886618998978568	16.8	15.412918598854635	24.4125236066927	0.08886618998978568
0.33800000000000024	0.16113527122911422	0.9652706843718083	16.900000000000002	23.6334516708783	6.022258958547263	0.9652706843718083
0.34000000000000025	0.0612314030670634	0.11644535240040858	17.0	28.130409136008478	16.249032534501794	0.11644535240040858
0.34200000000000025	1.9916319523918515	0.0	17.1	7.2138855707445755	6.045352315488518	0.0
0.34400000000000025	3.2130373083085373	0.0	17.2	16.2158136122594	14.619426919851163	0.0
0.34600000000000025	2.4492561226825362	0.24106230847803875	17.3	31.199399455604237	14.563010866710364	0.24106230847803875
0.34800000000000025	0.0612314030670634	0.9938712972420839	17.400000000000002	22.56409347726285	7.315511204275158	0.9938712972420839
0.35000000000000026	0.0612314030670634	0.08069458631256386	17.5	18.64688276906097	16.117425691667293	0.08069458631256386
0.35200000000000026	2.1173174639505605	0.0	17.6	18.304560800623317	15.019051883950691	0.0
0.35400000000000026	3.2130373083085373	0.0	17.7	29.624608487705043	9.168868032932883	0.0
0.35600000000000026	2.2430029755092695	0.30643513789581217	17.8	18.651993426462262	24.59005065456336	0.30643513789581217
0.35800000000000026	0.0612314030670634	0.8978549540347294	17.900000000000002	7.564113368797847	24.990476256510153	0.8978549540347294
0.36000000000000026	0.0612314030670634	0.029622063329928495	18.0	23.152685592649423	23.561081849621896	0.029622063329928495
0.36200000000000027	2.3848020141908903	0.0	18.1	5.106217746284014	21.37700427257902	0.0
0.36400000000000027	3.2130373083085373	0.0	18.2	5.333160190690289	25.946735702693665	0.0
0.36600000000000027	2.0496406500343327	0.36874361593462723	18.3	10.915681978040082	18.17503545138913	0.36874361593462723
0.36800000000000027	0.0612314030670634	0.72829417773238	18.400000000000002	3.1654559103502433	11.051749723513346	0.72829417773238
0.3700000000000003	0.0612314030670634	0.0	18.5	15.006345231320937	16.126958587380873	0.0
0.3720000000000003	2.5781643396658276	0.0	18.6	6.381662506969363	13.226684821833702	0.0
0.3740000000000003	3.2130373083085373	0.0	18.7	11.077516760280721	17.53237428162043	0.0
0.3760000000000003	1.769265278095674	0.45760980592441275	18.8	20.369005084195624	8.497826087998842	0.45760980592441275
0.3780000000000003	0.06445410849164569	0.8692543411644535	18.900000000000002	8.70187332043852	2.187201801101216	0.8692543411644535
0.3800000000000003	0.06767681391622797	0.02962206332992851	19.0	18.704153345461968	3.8664430572940214	0.02962206332992851
0.3820000000000003	2.777972075989929	0.0	19.1	11.820353177030933	8.755925648621398	0.0
0.3840000000000003	3.2130373083085373	0.0	19.200000000000003	5.882407691465994	6.008557587022145	0.0
0.3860000000000003	1.4147676813916226	0.5689479060265579	19.3	16.496933624014023	5.954322638206916	0.5689479060265579
0.3880000000000003	0.0612314030670634	0.9928498467824312	19.400000000000002	11.769293383233103	9.973860920582943	0.9928498467824312
0.3900000000000003	0.06767681391622797	0.06128702757916241	19.5	11.271732693152076	6.44354278125437	0.06128702757916241
0.3920000000000003	2.9326619363698785	0.0	19.6	15.814656703923283	2.487956068251694	0.0
0.3940000000000003	3.209814602883955	0.0	19.700000000000003	8.055789864606183	4.288946153481905	0.0
0.3960000000000003	1.2600778210116732	0.6179775280898877	19.8	3.260853720103921	10.333084244448226	0.6179775280898877
0.3980000000000003	0.0612314030670634	0.9938712972420839	19.900000000000002	3.9123563571163835	9.242506303053046	0.9938712972420839
0.4000000000000003	0.5543053330281529	0.0	20.0	9.905786928813818	14.021359737613508	0.0
0.4020000000000003	3.0905745021744107	0.0	20.1	2.522303003442061	3.252132068638998	0.0
0.4040000000000003	3.209814602883955	0.0	20.200000000000003	9.599653267195867	7.136766108052914	0.0
0.4060000000000003	1.0796063172350652	0.6751787538304393	20.3	12.950130652488628	4.38812950627866	0.6751787538304393
0.4080000000000003	0.0612314030670634	0.9938712972420839	20.400000000000002	12.343665773549594	4.815595409758799	0.9938712972420839
0.4100000000000003	0.9990386816205081	0.0	20.5	15.07083781035923	2.1642303220720356	0.0
0.4120000000000003	3.209814602883955	0.0	20.6	8.425927216478225	8.857091310325035	0.0
0.4140000000000003	3.209814602883955	0.0	20.700000000000003	5.023488272820949	3.991563680038356	0.0
0.4160000000000003	0.8379034103913939	0.7517875383043923	20.8	5.640812193395702	7.669861623652457	0.7517875383043923
0.4180000000000003	0.0612314030670634	0.9989785495403474	20.900000000000002	6.440469171803695	5.191433650617223	0.9989785495403474
0.4200000000000003	1.408322270542458	0.0	21.0	5.624199139906983	1.1324666249857516	0.0
0.4220000000000003	3.209814602883955	0.0	21.1	2.7555693316607335	10.506605063288172	0.0
0.4240000000000003	3.209814602883955	0.0	21.200000000000003	4.5995643137380275	4.747940979280706	0.0
0.4260000000000003	0.6896589608606087	0.7977528089887643	21.3	5.733106603580424	10.15102331290873	0.7977528089887643
0.4280000000000003	0.0612314030670634	0.9979570990806946	21.400000000000002	3.0462396498377724	9.089215124262621	0.9979570990806946
0.4300000000000003	1.756374456397345	0.0	21.5	7.33084544138619	6.444003016201102	0.0
0.43200000000000033	3.206591897459373	0.0	21.6	5.223018621677287	6.0420488420289615	0.0
0.43400000000000033	3.209814602883955	0.0	21.700000000000003	2.5327115835571985	2.141586936541237	0.0
0.43600000000000033	0.5543053330281529	0.8416751787538306	21.8	12.202090359294012	10.339288751877445	0.8416751787538306
0.43800000000000033	0.0612314030670634	0.9979570990806946	21.900000000000002	7.469718705402918	11.099712020606832	0.9979570990806946
0.44000000000000034	2.0786449988555735	0.0	22.0	5.739814961368686	1.0342896955855632	0.0
0.44200000000000034	3.209814602883955	0.0	22.1	6.4691520985132565	15.287783893181592	0.0
0.44400000000000034	3.196923781185626	0.0	22.200000000000003	5.189329189230641	8.490182456167892	0.0
0.44600000000000034	0.3480521858548867	0.9060265577119512	22.3	3.787040281684956	0.5997818743577391	0.9060265577119512
0.44800000000000034	0.0612314030670634	0.9979570990806946	22.400000000000002	9.683576975570533	3.957832228276658	0.9979570990806946
0.45000000000000034	2.265561913481346	0.0	22.5	4.551479209825833	10.699212960095807	0.0
0.45200000000000035	3.209814602883955	0.0	22.6	7.623054313991127	6.512794597911325	0.0
0.45400000000000035	3.187255664911879	0.0	22.700000000000003	4.209646203136324	6.200570609764905	0.0
0.45600000000000035	0.2030304417486839	0.9346271705822269	22.8	4.920471481702117	1.795015139614864	0.9346271705822269
0.45800000000000035	0.0612314030670634	0.9979570990806946	22.900000000000002	7.653466550061942	1.5009268449877444	0.9979570990806946
0.46000000000000035	2.3429068436713205	0.0	23.0	6.371341809901914	10.071978073264935	0.0
0.46200000000000035	3.2130373083085373	0.0	23.1	1.0030158681788606	10.44398810732574	0.0
0.46400000000000036	2.484705882352941	0.0	23.200000000000003	6.566895860891459	7.902041670028343	0.0
0.46600000000000036	0.0612314030670634	0.9519918283963229	23.3	4.304634573268604	4.592966080581237	0.9519918283963229
0.46800000000000036	0.0612314030670634	0.9989785495403474	23.400000000000002	8.978476580445133	8.175281440281388	0.9989785495403474
0.47000000000000036	2.3751338979171432	0.0	23.5	3.394876854518304	5.77693498566162	0.0
0.47200000000000036	3.2130373083085373	0.0	23.6	5.184998517654074	15.486562650699845	0.0
0.47400000000000037	1.869169146257725	0.0	23.700000000000003	4.55518603117995	5.849901598004209	0.0
0.47600000000000037	0.0612314030670634	0.9264555669050052	23.8	2.896713328544955	3.9671362538496697	0.9264555669050052
0.47800000000000037	0.0612314030670634	0.9989785495403474	23.900000000000002	5.641793700615624	5.49993631056515	0.9989785495403474
0.48000000000000037	2.471815060654612	0.0	24.0	3.5736803815005516	0.5341863682049504	0.0
0.4820000000000004	3.2130373083085373	0.0	24.1	4.9973037765439585	8.417968561728673	0.0
0.4840000000000004	1.553344014648661	0.0	24.200000000000003	2.275838868122793	10.297537398403325	0.0
0.4860000000000004	0.06445410849164569	0.8947906026557712	24.3	2.736236390624028	7.159446531980867	0.8947906026557712
0.4880000000000004	0.0612314030670634	0.9989785495403474	24.400000000000002	8.809287968545732	4.2767931088176825	0.9989785495403474
0.4900000000000004	2.620059510185397	0.0	24.5	4.807630319439579	4.3660260665878345	0.0
0.4920000000000004	3.2130373083085373	0.0	24.6	0.9453328741551873	3.5099663485533927	0.0
0.4940000000000004	1.3116411078049897	0.0	24.700000000000003	5.619198038256825	10.594196157095459	0.0
0.4960000000000004	0.0612314030670634	0.8580183861082739	24.8	2.7860300867960386	0.9939921583077309	0.8580183861082739
0.4980000000000004	0.06767681391622797	0.9969356486210421	24.900000000000002	6.450431557990001	5.424026281900466	0.9969356486210421
0.5000000000000003	2.7747493705653463	0.0	25.0	11.487397014642912	4.358361782501584	0.0
0.5020000000000003	3.2130373083085373	0.0	25.1	0.6312525051882133	11.209940037196036	0.0
0.5040000000000003	1.0473792629892424	0.0	25.200000000000003	11.119661288990255	3.6788983325744513	0.0
0.5060000000000003	0.0612314030670634	0.8100102145045965	25.3	5.206779223164812	4.7852341100449785	0.8100102145045965
0.5080000000000003	0.06767681391622797	0.9969356486210421	25.400000000000002	3.554528786580993	7.535780630665536	0.9969356486210421
0.5100000000000003	2.9777798123140307	0.0	25.5	7.679033693332456	3.908415021366083	0.0
0.5120000000000003	3.209814602883955	0.0	25.6	8.496641474939842	3.54380574623325	0.0
0.5140000000000003	0.918471046005951	0.0	25.700000000000003	4.479781731765193	1.7573917169572144	0.0
0.5160000000000003	0.0612314030670634	0.735444330949949	25.8	7.122465938856214	10.468034955949955	0.735444330949949
0.5180000000000003	0.8153444724193178	0.759959141981614	25.900000000000002	13.888679593987456	16.555046692107172	0.759959141981614
0.5200000000000004	3.1808102540627146	0.0	26.0	3.9323465786789913	4.137210087374813	0.0
0.5220000000000004	3.209814602883955	0.0	26.1	7.933367917117495	8.300636596675448	0.0
0.5240000000000004	0.7573357747768368	0.0	26.200000000000003	3.904516178157323	8.514495343739952	0.0
0.5260000000000004	0.0612314030670634	0.6649642492339122	26.3	6.391474826760561	8.175259793629117	0.6649642492339122
0.5280000000000004	1.3148638132295718	0.6006128702757917	26.400000000000002	3.967617743964583	3.978428323460316	0.6006128702757917
0.5300000000000004	3.206591897459373	0.0	26.5	8.626996372168836	9.39820457899334	0.0
0.5320000000000004	3.2130373083085373	0.0	26.6	5.412835232196021	8.37667528876826	0.0
0.5340000000000004	0.5188555733577477	0.0	26.700000000000003	8.075057891079842	2.784753897064358	0.0
0.5360000000000004	0.0612314030670634	0.59244126659857	26.8	3.7682632302680292	4.171944055243721	0.59244126659857
0.5380000000000004	1.6725841153582053	0.48723186925434125	26.900000000000002	3.500381072312767	8.963704464181859	0.48723186925434125
0.5400000000000004	3.209814602883955	0.0	27.0	9.621808370285686	5.168796047347839	0.0
0.5420000000000004	3.20336919203479	0.0	27.1	8.41799971288511	8.890407637290112	0.0
0.5440000000000004	0.41895170519569697	0.0	27.200000000000003	3.980215171915256	3.8696547900353324	0.0
0.5460000000000004	0.0612314030670634	0.6332992849846784	27.3	8.470481359334253	5.40545356037742	0.6332992849846784
0.5480000000000004	1.9658503089951933	0.3942798774259449	27.400000000000002	7.297767589582468	9.34217926708346	0.3942798774259449
0.5500000000000004	3.209814602883955	0.0	27.5	3.807547359638439	6.519570048650402	0.0
0.5520000000000004	3.1937010757610436	0.0	27.6	4.505089658881904	7.4014643243108384	0.0
0.5540000000000004	0.23203479056992446	0.0	27.700000000000003	1.608336140949141	7.029134882963938	0.0
0.5560000000000004	0.0612314030670634	0.7119509703779368	27.8	3.5701290373598225	8.591969691347476	0.7119509703779368
0.5580000000000004	2.2011078049897	0.32073544433094997	27.900000000000002	10.110935431430216	9.095907207877689	0.32073544433094997
0.5600000000000004	3.2130373083085373	0.0	28.0	11.957463505072411	6.365195661952634	0.0
0.5620000000000004	2.6007232776379032	0.0	28.1	6.544975095004677	7.658213792586569	0.0
0.5640000000000004	0.07089951934081025	0.0	28.200000000000003	10.096425270031252	10.283621114132156	0.0
0.5660000000000004	0.0612314030670634	0.7446373850868234	28.3	2.781393301835431	9.968838654468605	0.7446373850868234
0.5680000000000004	2.371911192492561	0.2665985699693566	28.400000000000002	10.865606308760611	12.420994339712061	0.2665985699693566
0.5700000000000004	3.2130373083085373	0.0	28.5	16.29351816228003	6.05552715610671	0.0
0.5720000000000004	2.2623392080567633	0.0	28.6	11.18938526322665	5.627737438322464	0.0
0.5740000000000004	0.0612314030670634	0.0	28.700000000000003	7.019672552228175	7.2751116076244005	0.0
0.5760000000000004	0.0612314030670634	0.8049029622063331	28.8	7.2281749986072	8.953853631203698	0.8049029622063331
0.5780000000000004	2.5201556420233464	0.21961184882533194	28.900000000000002	6.9456075548120575	6.75139506045153	0.21961184882533194
0.5800000000000004	3.2130373083085373	0.0	29.0	7.963559273270176	5.71966213259913	0.0
0.5820000000000004	1.8337193865873196	0.0	29.1	4.7847259881910436	4.317782025906186	0.0
0.5840000000000004	0.06445410849164569	0.0	29.200000000000003	9.376300170166386	2.3828931446442008	0.0
0.5860000000000004	0.0612314030670634	0.8314606741573034	29.3	10.479459560615537	15.619645230328539	0.8314606741573034
0.5880000000000004	2.6490638590066378	0.17875383043922366	29.400000000000002	9.800681584106234	6.832981418340024	0.17875383043922366
0.5900000000000004	3.2130373083085373	0.0	29.5	4.053095467215537	3.26398457019305	0.0
0.5920000000000004	1.633911650263218	0.0	29.6	12.229062488209367	4.534424463755346	0.0
0.5940000000000004	0.0612314030670634	0.0020429009193054146	29.700000000000003	6.921843385736496	2.6622472474262464	0.0020429009193054146
0.5960000000000004	0.06767681391622797	0.8702757916241063	29.8	8.09761280381033	3.5194598602362754	0.8702757916241063
0.5980000000000004	2.819867246509499	0.12461695607763015	29.900000000000002	6.59893535705517	4.733453029739439	0.12461695607763015
0.6000000000000004	3.2130373083085373	0.0	30.0	14.05557702577241	8.747492471019852	0.0
0.6020000000000004	1.4373266193636987	0.0	30.1	7.564369851523329	2.854752344174598	0.0
0.6040000000000004	0.0612314030670634	0.0020429009193054146	30.200000000000003	9.936823504314216	2.9968733784150605	0.0020429009193054146
0.6060000000000004	0.06767681391622797	0.9111338100102147	30.3	9.090727522952227	2.854045832029014	0.9111338100102147
0.6080000000000004	2.974557106889448	0.07456588355464772	30.400000000000002	14.356360517062583	0.8652538030096583	0.07456588355464772
0.6100000000000004	3.209814602883955	0.0	30.5	6.704750288246519	12.208581536108547	0.0
0.6120000000000004	1.2052918287937744	0.0	30.6	8.553213716686201	3.900693711697492	0.0
0.6140000000000004	0.0612314030670634	0.14198161389172628	30.700000000000003	0.42668949336552975	4.4923118597755805	0.14198161389172628
0.6160000000000004	0.7089951934081026	0.7466802860061288	30.8	9.864759722203935	2.0503061827288818	0.7466802860061288
0.6180000000000004	3.1292469672693977	0.026557711950970456	30.900000000000002	4.846306911994546	3.839907656956061	0.026557711950970456
0.6200000000000004	3.209814602883955	0.0	31.0	5.688921045857073	1.750322030640264	0.0
0.6220000000000004	0.9313618677042801	0.0	31.1	9.59972222431705	3.9544002087180004	0.0
0.6240000000000004	0.0612314030670634	0.21859039836567928	31.200000000000003	7.501269254442857	3.383872160062768	0.21859039836567928
0.6260000000000004	0.941029983978027	0.7037793667007151	31.3	9.998561889733182	1.4917571270908794	0.7037793667007151
0.6280000000000004	3.20336919203479	0.002042900919305463	31.400000000000002	5.317118293437005	4.98341858852744	0.002042900919305463
0.6300000000000004	3.209814602883955	0.0	31.5	5.106812891143638	2.2748049439571894	0.0
0.6320000000000005	0.6638773174639505	0.0	31.6	3.49968838282256	0.3509932954674231	0.0
0.6340000000000005	0.0612314030670634	0.3411644535240041	31.700000000000003	6.966821083952622	2.3782942851714246	0.3411644535240041
0.6360000000000005	1.2987502861066604	0.6057201225740553	31.8	14.932507458278595	6.808118077489421	0.6057201225740553
0.6380000000000005	3.206591897459373	0.0010214504596525909	31.900000000000002	9.91116532077843	3.3340911606699546	0.0010214504596525909
0.6400000000000005	3.209814602883955	0.0	32.0	2.736274671995576	5.074333770707935	0.0
0.6420000000000005	0.5059647516594187	0.0	32.1	4.905752211273683	4.078478068992309	0.0
0.6440000000000005	0.0612314030670634	0.4596527068437182	32.2	3.5613018121908557	4.525347561900624	0.4596527068437182
0.6460000000000005	1.6983657587548637	0.478038815117467	32.300000000000004	3.1259323562878527	9.25910915249837	0.478038815117467
0.6480000000000005	3.209814602883955	0.0	32.4	7.349484371739614	6.616550437608772	0.0
0.6500000000000005	3.196923781185626	0.0	32.5	1.7956975251198146	5.937660136271725	0.0
0.6520000000000005	0.3609430075532158	0.0	32.6	3.8304621720868983	7.819996252289621	0.0
0.6540000000000005	0.0612314030670634	0.5321756894790605	32.7	13.12837986038033	4.081414020881539	0.5321756894790605
0.6560000000000005	2.065754177157244	0.36261491317671096	32.800000000000004	11.405555305375904	5.943428103133744	0.36261491317671096
0.6580000000000005	3.209814602883955	0.0	32.9	9.704728127228906	6.161127892377872	0.0
0.6600000000000005	3.196923781185626	0.0	33.0	4.958405152954617	1.9094330317242565	0.0
0.6620000000000005	0.2674845502403296	0.0	33.1	5.39096472501422	6.1005139549041845	0.0
0.6640000000000005	0.0612314030670634	0.5669050051072524	33.2	5.439401381831215	1.5359443138612905	0.5669050051072524
0.6660000000000005	2.2945662623025864	0.29111338100102147	33.300000000000004	0.810919191685145	1.439329287760723	0.29111338100102147
0.6680000000000005	3.2130373083085373	0.0	33.4	12.684575389587636	5.695210182485773	0.0
0.6700000000000005	2.8069764248111695	0.0	33.5	12.491062404049414	5.460259904017504	0.0
0.6720000000000005	0.13535362783245594	0.0	33.6	6.586084709093883	6.2555452593814636	0.0
0.6740000000000005	0.0612314030670634	0.6475995914198162	33.7	5.123550755204809	8.65366233360105	0.6475995914198162
0.6760000000000005	2.5104875257495993	0.22267620020429013	33.800000000000004	6.10277395739352	9.223383768387954	0.22267620020429013
0.6780000000000005	3.2130373083085373	0.0	33.9	8.779594884508722	9.822505070912742	0.0
0.6800000000000005	2.4975967040512703	0.0	34.0	3.2218700804688196	7.129030463112001	0.0
0.6820000000000005	0.0612314030670634	0.0	34.1	13.367129442359463	6.4982611053944055	0.0
0.6840000000000005	0.0612314030670634	0.7099080694586313	34.2	10.605668234609976	3.6809393318539496	0.7099080694586313
0.6860000000000005	2.642618448157473	0.1807967313585291	34.300000000000004	2.1007462672411528	3.269084761272403	0.1807967313585291
0.6880000000000005	3.2130373083085373	0.0	34.4	3.8744559848684093	5.951451815899177	0.0
0.6900000000000005	2.094758525978485	0.0	34.5	7.98322559770248	8.869489468695551	0.0
0.6920000000000005	0.06445410849164569	0.0	34.6	12.207183297359858	4.819579940006834	0.0
0.6940000000000005	0.06767681391622797	0.7487231869254343	34.7	7.401046985134182	8.206486701805161	0.7487231869254343
0.6960000000000005	2.7940856031128405	0.13278855975485188	34.800000000000004	5.188459335115111	7.179991649080656	0.13278855975485188
0.6980000000000005	3.2130373083085373	0.0	34.9	1.1015801959881575	3.1000179296628176	0.0
0.7000000000000005	1.6403570611123826	0.0	35.0	3.409937429221226	4.460423274904668	0.0
0.7020000000000005	0.0612314030670634	0.0	35.1	2.102274047546892	3.813646099972239	0.0
0.7040000000000005	0.06767681391622797	0.8140960163432075	35.2	5.383100560251138	4.4401649608380085	0.8140960163432075
0.7060000000000005	2.9068802929732205	0.09703779366700711	35.300000000000004	7.73186948984083	6.542636423809855	0.09703779366700711
0.7080000000000005	3.209814602883955	0.0	35.4	4.287131973030696	2.583179054676542	0.0
0.7100000000000005	1.3503135728999769	0.0	35.5	7.5994642940397945	5.137735425360907	0.0
0.7120000000000005	0.0612314030670634	0.0020429009193054146	35.6	8.166654968120813	4.342602812311252	0.0020429009193054146
0.7140000000000005	0.4737376974135958	0.7262512768130747	35.7	9.442651831205787	2.911900948140421	0.7262512768130747
0.7160000000000005	3.074460975051499	0.04392236976506647	35.800000000000004	4.160778202328995	1.239665464129082	0.04392236976506647
0.7180000000000005	3.209814602883955	0.0	35.9	7.448160411847075	3.441717826427587	0.0
0.7200000000000005	1.1247241931792173	0.0	36.0	2.2768705290514974	3.5911607316395595	0.0
0.7220000000000005	0.0612314030670634	0.0020429009193054146	36.1	4.598041914200828	0.19088438356895773	0.0020429009193054146
0.7240000000000005	0.9829251544975967	0.6016343207354444	36.2	7.392705942143488	1.9942291473690434	0.6016343207354444
0.7260000000000005	3.209814602883955	0.0010214504596527316	36.300000000000004	4.403381323457321	3.8803641732283003	0.0010214504596527316
0.7280000000000005	3.209814602883955	0.0	36.4	2.6561825369407472	1.016114262458633	0.0
0.7300000000000005	0.9732570382238498	0.0	36.5	6.69489574861985	2.776201044362007	0.0
0.7320000000000005	0.0612314030670634	0.13381001021450464	36.6	6.481090636692776	3.7056445961918656	0.13381001021450464
0.7340000000000005	1.3051956969558252	0.5587334014300307	36.7	9.03458546803533	2.5062895786755788	0.5587334014300307
0.7360000000000005	3.209814602883955	0.0	36.800000000000004	5.423321419640619	4.661167478755729	0.0
0.7380000000000005	3.209814602883955	0.0	36.9	12.255501636763814	2.7695344939882065	0.0
0.7400000000000005	0.5768642710002289	0.0	37.0	11.62756753993467	1.3456286280977277	0.0
0.7420000000000005	0.0612314030670634	0.25536261491317674	37.1	8.003342635313158	3.8597000868166735	0.25536261491317674
0.7440000000000005	1.430881208514534	0.5587334014300308	37.2	4.176455274012347	1.1809170080056948	0.5587334014300308
0.7460000000000006	3.209814602883955	0.0	37.300000000000004	10.140818554998935	1.4613096703408701	0.0
0.7480000000000006	3.196923781185626	0.0	37.4	4.623160130886141	4.493410739008558	0.0
0.7500000000000006	0.27715266651407644	0.0	37.5	5.454769991506258	3.2141018283661786	0.0
0.7520000000000006	0.0612314030670634	0.3615934627170582	37.6	5.656975546572463	4.346660830994643	0.3615934627170582
0.7540000000000006	1.5404531929503318	0.5291113381001022	37.7	14.204600464726816	3.524103581088086	0.5291113381001022
0.7560000000000006	3.209814602883955	0.0	37.800000000000004	12.357885111464379	2.5183607464670916	0.0
0.7580000000000006	2.803753719386587	0.0	37.9	10.521896144876294	4.829266629266814	0.0
0.7600000000000006	0.12890821698329138	0.0	38.0	9.97723961305421	5.700762597928385	0.0
0.7620000000000006	0.0612314030670634	0.49846782431052106	38.1	14.118572360260968	2.986051629306761	0.49846782431052106
0.7640000000000006	1.6919203479056992	0.481103166496425	38.2	16.694476213550306	6.882689584143924	0.481103166496425
0.7660000000000006	3.209814602883955	0.0	38.300000000000004	15.497516971548812	5.017707256514291	0.0
0.7680000000000006	2.4331425955596244	0.0	38.400000000000006	13.266925382562036	8.699279754209616	0.0
0.7700000000000006	0.0612314030670634	0.0	38.5	11.689784572764685	6.222834220301315	0.0
0.7720000000000006	0.0612314030670634	0.5812053115423903	38.6	16.886853071583385	7.1242082834258715	0.5812053115423903
0.7740000000000006	1.9368459601739527	0.40347293156281927	38.7	23.259798307625	6.389137368280868	0.40347293156281927
0.7760000000000006	3.2130373083085373	0.0	38.800000000000004	14.023955337456771	4.222543342567414	0.0
0.7780000000000006	2.0270817120622566	0.0	38.900000000000006	11.041479435155104	5.717041061496838	0.0
0.7800000000000006	0.0612314030670634	0.0	39.0	9.542971888051772	2.3951121796111408	0.0
0.7820000000000006	0.0612314030670634	0.658835546475996	39.1	14.867241327876854	6.360339613144682	0.658835546475996
0.7840000000000006	2.146321812771801	0.33810010214504616	39.2	11.414863590656187	5.983048515068559	0.33810010214504616
0.7860000000000006	3.2130373083085373	0.0	39.300000000000004	8.129265369108843	2.167631478405255	0.0
0.7880000000000006	1.7305928130006865	0.0	39.400000000000006	1.9444727121453007	4.525691402821666	0.0
0.7900000000000006	0.0612314030670634	0.0	39.5	2.4205617779228255	1.825554217428534	0.0
0.7920000000000006	0.0612314030670634	0.6935648621041881	39.6	3.7767785071243978	6.98118757759944	0.6935648621041881
0.7940000000000006	2.391247425040055	0.2604698672114402	39.7	4.081664577782848	2.7554018344682185	0.2604698672114402
0.7960000000000006	3.2130373083085373	0.0	39.800000000000004	6.076181298991801	2.8716810338475476	0.0
0.7980000000000006	1.5694575417715724	0.0	39.900000000000006	7.929557037699965	0.38946503470520766	0.0
0.8000000000000006	0.06445410849164569	0.0	40.0	6.6536399343101555	1.7441174493136489	0.0
0.8020000000000006	0.0612314030670634	0.7405515832482125	40.1	5.133611470427876	5.3512373992856	0.7405515832482125
0.8040000000000006	2.6748455024032958	0.1705822267620021	40.2	4.726211854605532	3.0191488909877346	0.1705822267620021
0.8060000000000006	3.2130373083085373	0.0	40.300000000000004	3.828302264351337	3.1979671308103748	0.0
0.8080000000000006	1.4244357976653697	0.0	40.400000000000006	7.865110145059445	4.0023014199774885	0.0
0.8100000000000006	0.0612314030670634	0.0	40.5	10.69665620660443	2.8101973668560376	0.0
0.8120000000000006	0.06767681391622797	0.7875383043922372	40.6	11.32163664734372	7.5964208161059545	0.7875383043922372
0.8140000000000006	2.8488715953307393	0.11542390194075586	40.7	3.9182162415437674	4.080247575881077	0.11542390194075586
0.8160000000000006	3.2130373083085373	0.0	40.800000000000004	4.556186073513635	7.609533015283614	0.0
0.8180000000000006	1.214959945067521	0.0	40.900000000000006	7.7137911546690985	2.3089683098162443	0.0
0.8200000000000006	0.0612314030670634	0.0	41.0	7.131269914809512	2.1011632109766434	0.0
0.8220000000000006	0.39317006179903863	0.7252298263534219	41.1	7.511386548632697	4.08359689339373	0.7252298263534219
0.8240000000000006	3.035788509956512	0.0551583248212461	41.2	6.984173786566911	3.7762569137189343	0.0551583248212461
0.8260000000000006	3.2130373083085373	0.0	41.300000000000004	4.5188925859653715	7.6328638485075	0.0
0.8280000000000006	1.0506019684138246	0.0	41.400000000000006	5.663535295614474	7.527625674145708	0.0
0.8300000000000006	0.0612314030670634	0.0020429009193054146	41.5	2.902729617957331	5.326385387053145	0.0020429009193054146
0.8320000000000006	0.9700343327992675	0.567926455566905	41.6	4.514924946568095	4.104854884701488	0.567926455566905
0.8340000000000006	3.206591897459373	0.0020429009193053222	41.7	4.111445399525059	6.60836591962624	0.0020429009193053222
0.8360000000000006	3.209814602883955	0.0	41.800000000000004	8.472641764128195	5.940338127271627	0.0
0.8380000000000006	0.8636850537880522	0.0	41.900000000000006	3.4620078211545673	6.235270782734885	0.0
0.8400000000000006	0.0612314030670634	0.0020429009193054146	42.0	2.7158132733672034	5.555359520874577	0.0020429009193054146
0.8420000000000006	1.4018768596932936	0.4800817160367723	42.1	11.388158604453682	0.964020294414366	0.4800817160367723
0.8440000000000006	3.209814602883955	0.0010214504596527316	42.2	2.93103503433065	1.3741532900345508	0.0010214504596527316
0.8460000000000006	3.209814602883955	0.0	42.300000000000004	7.530074994459931	3.4336108343065193	0.0
0.8480000000000006	0.6993270771343556	0.0	42.400000000000006	3.5326297773667346	4.3329560080865805	0.0
0.8500000000000006	0.0612314030670634	0.12972420837589377	42.5	10.049716228842334	7.777436221751931	0.12972420837589377
0.8520000000000006	1.7660425726710915	0.40653728294177743	42.6	9.162247474379267	2.391254793799047	0.40653728294177743
0.8540000000000006	3.209814602883955	0.0	42.7	3.6070976360079303	2.1720271908362316	0.0
0.8560000000000006	3.216260013733119	0.0	42.800000000000004	12.957243701867846	2.466043524258721	0.0
0.8580000000000007	0.49951934081025406	0.0	42.900000000000006	11.139573446989306	7.922984352514537	0.0
0.8600000000000007	0.0612314030670634	0.2512768130745659	43.0	11.308455125699169	6.58387688293271	0.2512768130745659
0.8620000000000007	2.0077454795147633	0.3738508682328906	43.1	7.114928564724337	2.144386636100014	0.3738508682328906
0.8640000000000007	3.209814602883955	0.0	43.2	0.972469086953024	4.745778966790178	0.0
0.8660000000000007	3.196923781185626	0.0	43.300000000000004	4.881464663923724	7.285905416226438	0.0
0.8680000000000007	0.32549324788281064	0.0	43.400000000000006	5.04656459628912	5.867268359633413	0.0
0.8700000000000007	0.0612314030670634	0.37895812053115435	43.5	1.3142267556621807	8.846848857320321	0.37895812053115435
0.8720000000000007	2.1592126344701303	0.33299284984678246	43.6	2.3075800174537204	4.123109389916933	0.33299284984678246
0.8740000000000007	3.209814602883955	0.0	43.7	10.684353357567739	1.3866487214086523	0.0
0.8760000000000007	2.781194781414511	0.0	43.800000000000004	5.510941185934529	4.921009669970984	0.0
0.8780000000000007	0.12890821698329138	0.0	43.900000000000006	8.27160336027458	6.067372071194843	0.0
0.8800000000000007	0.0612314030670634	0.45454545454545464	44.0	9.469501135677245	4.20612171622057	0.45454545454545464
0.8820000000000007	2.255893797207599	0.30132788559754864	44.1	8.972595326697713	4.082733335862229	0.30132788559754864
0.8840000000000007	3.2130373083085373	0.0	44.2	10.86212658445918	5.97239299109886	0.0
0.8860000000000007	2.391247425040055	0.0	44.300000000000004	3.4702050210990794	1.4776809733983713	0.0
0.8880000000000007	0.0612314030670634	0.0	44.400000000000006	2.701937215464272	4.362117695530524	0.0
0.8900000000000007	0.0612314030670634	0.5362614913176712	44.5	3.736138789439999	5.397359143208693	0.5362614913176712
0.8920000000000007	2.410583657587549	0.2533197139938712	44.6	4.44769555937239	8.988381366079109	0.2533197139938712
0.8940000000000007	3.2130373083085373	0.0	44.7	4.393149709071955	6.3771426430812825	0.0
0.8960000000000007	1.9884092469672694	0.0	44.800000000000004	2.9562466187408307	2.9048343434765194	0.0
0.8980000000000007	0.06445410849164569	0.0	44.900000000000006	4.499838119895464	3.364807509844	0.0
0.9000000000000007	0.0612314030670634	0.6098059244126661	45.0	3.065545886877198	5.8602448755257495	0.6098059244126661
0.9020000000000007	2.6297276264591436	0.18386108273748733	45.1	5.60889836867161	6.38453813179385	0.18386108273748733
0.9040000000000007	3.2130373083085373	0.0	45.2	5.13724413831926	5.40870755314924	0.0
0.9060000000000007	1.67902952620737	0.0	45.300000000000004	8.942492318490276	4.574482285752731	0.0
0.9080000000000007	0.0612314030670634	0.0	45.400000000000006	12.485824427835263	1.0268421091095292	0.0
0.9100000000000007	0.06767681391622797	0.6864147088866192	45.5	5.508542392239739	3.930186615341315	0.6864147088866192
0.9120000000000007	2.829535362783245	0.12155260469867224	45.6	1.738317571302695	0.7226134400084914	0.12155260469867224
0.9140000000000007	3.209814602883955	0.0	45.7	1.1960982621037466	0.7555654823940111	0.0
0.9160000000000007	1.3986541542687112	0.0	45.800000000000004	3.4351636680154485	2.1409021645295887	0.0
0.9180000000000007	0.0612314030670634	0.0	45.900000000000006	1.515126332671642	5.246128732904277	0.0
0.9200000000000007	0.06767681391622797	0.7211440245148112	46.0	1.9671494797302065	5.158983075209869	0.7211440245148112
0.9220000000000007	2.9906706340123597	0.07048008171603679	46.1	0.2684302434929131	6.580921466889506	0.07048008171603679
0.9240000000000007	3.2130373083085373	0.0	46.2	1.7504952234525184	3.888652531139878	0.0
0.9260000000000007	1.189178301670863	0.0	46.300000000000004	4.340549942040049	5.062431484171021	0.0
0.9280000000000007	0.0612314030670634	0.0	46.400000000000006	6.184834685634073	1.7789715658271745	0.0
0.9300000000000007	0.8797985809109636	0.5097037793667007	46.5	8.095335965793284	4.056972245932901	0.5097037793667007
0.9320000000000007	3.200146486610208	0.004085801838610926	46.6	6.210519603352025	2.8218871616383114	0.004085801838610926
0.9340000000000007	3.209814602883955	0.0	46.7	2.0388661644230006	1.1191432734567477	0.0
0.9360000000000007	1.0183749141680019	0.0	46.800000000000004	6.225750206743128	1.46868083607222	0.0
0.9380000000000007	0.0612314030670634	0.0	46.900000000000006	4.836801028209469	4.412122852437617	0.0
0.9400000000000007	1.327754634927901	0.40755873340143006	47.0	4.6737146282187725	3.1492448681851046	0.40755873340143006
0.9420000000000007	3.209814602883955	0.0010214504596527316	47.1	4.251974647420503	4.080490509062493	0.0010214504596527316
0.9440000000000007	3.209814602883955	0.0	47.2	4.451460905021429	2.284700552953846	0.0
0.9460000000000007	0.7798947127489128	0.0	47.300000000000004	6.582610121913883	3.247285690615867	0.0
0.9480000000000007	0.0612314030670634	0.0020429009193054146	47.400000000000006	3.177526517462149	2.5166605566240747	0.0020429009193054146
0.9500000000000007	1.475999084458686	0.4014300306435138	47.5	7.986763862085475	4.6812949484035595	0.4014300306435138
0.9520000000000007	3.206591897459373	0.0020429009193053222	47.6	2.388278520770295	5.061753742834968	0.0020429009193053222
0.9540000000000007	3.2130373083085373	0.0	47.7	1.7165372568627288	4.197689731385036	0.0
0.9560000000000007	0.41572899977111466	0.0	47.800000000000004	5.47670754251465	3.3752546109930566	0.0
0.9580000000000007	0.0612314030670634	0.0020429009193054146	47.900000000000006	4.795678266021	4.064941310755839	0.0020429009193054146
0.9600000000000007	1.7305928130006865	0.387129724208376	48.0	7.476526954618724	3.3879203090419554	0.387129724208376
0.9620000000000007	3.209814602883955	0.0	48.1	2.6673760053448285	2.40892252508819	0.0
0.9640000000000007	3.196923781185626	0.0	48.2	4.176814158134457	4.996655936783035	0.0
0.9660000000000007	0.2449256122682536	0.0	48.300000000000004	4.34870560901323	1.4018853993868678	0.0
0.9680000000000007	0.0612314030670634	0.18590398365679267	48.400000000000006	9.156792489365214	7.372117825927401	0.18590398365679267
0.9700000000000008	1.962627603570611	0.3646578140960164	48.5	2.8624422118738897	4.325174646506176	0.3646578140960164
0.9720000000000008	3.2130373083085373	0.0	48.6	2.5267407979677077	5.184299222817186	0.0
0.9740000000000008	2.7650812542915997	0.0	48.7	3.1796712016595094	3.253997293877484	0.0
0.9760000000000008	0.10634927901121537	0.0	48.800000000000004	1.7646930911797556	7.057122188494738	0.0
0.9780000000000008	0.0612314030670634	0.3125638406537284	48.900000000000006	7.686215118441329	4.444524913553144	0.3125638406537284
0.9800000000000008	2.114094758525978	0.34831460674157316	49.0	3.8968441607334494	5.335309644756558	0.34831460674157316
0.9820000000000008	3.2130373083085373	0.0	49.1	6.906489891368304	5.631453184834082	0.0
0.9840000000000008	2.3880247196154722	0.0	49.2	8.351519063120719	3.6365860370425	0.0
0.9860000000000008	0.0612314030670634	0.0	49.300000000000004	4.357257701616062	0.9931738585728738	0.0
0.9880000000000008	0.0612314030670634	0.4371807967313586	49.400000000000006	4.676961999163912	4.719951668067493	0.4371807967313586
0.9900000000000008	2.317125200274662	0.2819203268641473	49.5	6.6813261730338676	2.4852805941565217	0.2819203268641473
0.9920000000000008	3.2130373083085373	0.0	49.6	6.698797718080762	3.8331812698507166	0.0
0.9940000000000008	2.039972533760586	0.0	49.7	6.679244729767959	5.359555243904865	0.0
0.9960000000000008	0.0612314030670634	0.0	49.800000000000004	5.464831346000476	2.437202633660616	0.0
0.9980000000000008	0.0612314030670634	0.49131767109295216	49.900000000000006	2.8249737284499608	6.446871516201894	0.49131767109295216
1.0000000000000007	2.462146944380865	0.2369765066394281	50.0	3.3581261547349426	2.783511495624173	0.2369765066394281
1.0020000000000007	3.2130373083085373	0.0	50.1	3.8959473613802014	4.341812906794162	0.0
1.0040000000000007	1.8143831540398259	0.0	50.2	5.867500128755874	5.076880048707661	0.0
1.0060000000000007	0.06445410849164569	0.0	50.300000000000004	3.8460775447429434	4.305099507741284	0.0
1.0080000000000007	0.0612314030670634	0.5434116445352402	50.400000000000006	5.645523355401076	4.7828473876521675	0.5434116445352402
1.0100000000000007	2.7940856031128405	0.13176710929519914	50.5	3.7783378343772105	1.6140735117108238	0.13176710929519914
1.0120000000000007	3.2130373083085373	0.0	50.6	8.301911231770623	5.362820844686948	0.0
1.0140000000000007	1.2600778210116732	0.0	50.7	2.3203308485110106	7.334335011027108	0.0
1.0160000000000007	0.0612314030670634	0.0	50.800000000000004	13.695061589393331	3.196880817288236	0.0
1.0180000000000007	0.06767681391622797	0.5485188968335036	50.900000000000006	9.4164298577822	4.240225066773351	0.5485188968335036
1.0200000000000007	2.984225223163195	0.07150153217568953	51.0	10.665526407978161	4.585208072738232	0.07150153217568953
1.0220000000000007	3.209814602883955	0.0	51.1	6.869076235338044	3.1983851545333866	0.0
1.0240000000000007	0.9474753948271916	0.0	51.2	10.664142348391366	0.7957625782309334	0.0
1.0260000000000007	0.0612314030670634	0.0	51.300000000000004	7.287814309593806	5.533008664479187	0.0
1.0280000000000007	0.7992309452964065	0.37385086823289077	51.400000000000006	1.9198135325155061	2.6360033806432326	0.37385086823289077
1.0300000000000007	3.155028610666056	0.017364657814096015	51.5	0.6898029098207638	8.255974902877528	0.017364657814096015
1.0320000000000007	3.209814602883955	0.0	51.6	3.29525078720574	6.47198425147528	0.0
1.0340000000000007	0.6767681391622797	0.0	51.7	4.993576438255963	10.741653044589514	0.0
1.0360000000000007	0.0612314030670634	0.0	51.800000000000004	2.8159757755134276	3.2190422880991867	0.0
1.0380000000000007	1.3309773403524832	0.2696629213483147	51.900000000000006	6.974225345350386	3.3314361523067952	0.2696629213483147
1.0400000000000007	3.206591897459373	0.0020429009193053222	52.0	10.389347289161787	4.53143755993887	0.0020429009193053222
1.0420000000000007	3.2130373083085373	0.0	52.1	4.951424605175237	4.9693265745426105	0.0
1.0440000000000007	0.45440146486610206	0.0	52.2	4.071142515692434	9.525686553207665	0.0
1.0460000000000007	0.0612314030670634	0.0	52.300000000000004	1.5164610376541316	3.185739895969771	0.0
1.0480000000000007	1.7821560997940031	0.16956077630234928	52.400000000000006	3.534954734738975	4.9722184931036635	0.16956077630234928
1.0500000000000007	3.209814602883955	0.0010214504596527316	52.5	4.971496051492843	4.970016032196565	0.0010214504596527316
1.0520000000000007	3.196923781185626	0.0	52.6	3.587061950175917	4.365408506830665	0.0
1.0540000000000007	0.34482948043030437	0.0	52.7	2.591631505176354	2.171049719937136	0.0
1.0560000000000007	0.0612314030670634	0.0	52.800000000000004	6.97381495710594	8.456828919301788	0.0
1.0580000000000007	2.0174135957885095	0.14708886618998998	52.900000000000006	6.295690489755326	1.9295541498783655	0.14708886618998998
1.0600000000000007	3.209814602883955	0.0010214504596527316	53.0	1.376112873708231	3.570368019312094	0.0010214504596527316
1.0620000000000007	3.055124742504005	0.0	53.1	3.958705677756382	2.702052014487304	0.0
1.0640000000000007	0.17402609292744334	0.0	53.2	1.3129419920011771	4.698826424287407	0.0
1.0660000000000007	0.0612314030670634	0.0	53.300000000000004	3.9192694025579735	5.519808012024639	0.0
1.0680000000000007	2.2623392080567633	0.12563840653728303	53.400000000000006	2.630175200577451	4.104838656948379	0.12563840653728303
1.0700000000000007	3.2130373083085373	0.0	53.5	2.974820359047544	4.79501742653939	0.0
1.0720000000000007	2.5201556420233464	0.0	53.6	6.646419503012917	5.43516271893154	0.0
1.0740000000000007	0.0612314030670634	0.0	53.7	1.185099120599226	4.2146052367707405	0.0
1.0760000000000007	0.0612314030670634	0.0020429009193054146	53.800000000000004	1.568643583797093	0.8037066213907047	0.0020429009193054146
1.0780000000000007	2.3622430762188142	0.15832482124616945	53.900000000000006	0.6244957293274042	3.954780219466863	0.15832482124616945
1.0800000000000007	3.2130373083085373	0.0	54.0	1.8800161677290608	2.4528120827442064	0.0
1.0820000000000007	2.0206363012130923	0.0	54.1	3.8405591810227704	3.1714110839737697	0.0
1.0840000000000007	0.0612314030670634	0.0	54.2	5.319581136089718	1.7580185455695143	0.0
1.0860000000000007	0.0612314030670634	0.0020429009193054146	54.300000000000004	7.889173169822866	2.3647017467544678	0.0020429009193054146
1.0880000000000007	2.484705882352941	0.1542390194075588	54.400000000000006	7.907716266925151	7.71843829731215	0.1542390194075588
1.0900000000000007	3.2130373083085373	0.0	54.5	2.9986226504221523	3.820684070775733	0.0
1.0920000000000007	1.6854749370565345	0.0	54.6	5.585508006813937	1.6532370756452088	0.0
1.0940000000000007	0.06445410849164569	0.0	54.7	1.8779331073116947	5.725118498155629	0.0
1.0960000000000008	0.0612314030670634	0.16649642492339123	54.800000000000004	2.18108732149885	2.978788243912155	0.16649642492339123
1.0980000000000008	2.6845136186770424	0.139938712972421	54.900000000000006	2.6665521979488367	4.730139510771062	0.139938712972421
1.1000000000000008	3.2130373083085373	0.0	55.0	1.6768258711193023	6.541141742998627	0.0
1.1020000000000008	1.3535362783245595	0.0	55.1	4.121835218088733	3.3170559727215125	0.0
1.1040000000000008	0.0612314030670634	0.0	55.2	2.8939865176802897	4.693376168592628	0.0
1.1060000000000008	0.06767681391622797	0.31052093973442296	55.300000000000004	3.7728368019934333	8.248527643971778	0.31052093973442296
1.1080000000000008	2.810199130235752	0.1266598569969356	55.400000000000006	1.8030673201189646	2.356338172420841	0.1266598569969356
1.1100000000000008	3.2130373083085373	0.0	55.5	3.3684355930704726	1.0803358771412586	0.0
1.1120000000000008	1.089274433508812	0.0	55.6	4.336633721609981	4.3919378568093235	0.0
1.1140000000000008	0.0612314030670634	0.0	55.7	1.1599043070514645	1.0645721870855436	0.0
1.1160000000000008	0.06767681391622797	0.43922369765066405	55.800000000000004	4.533066609921013	7.248896484098067	0.43922369765066405
1.1180000000000008	2.974557106889448	0.07354443309499513	55.900000000000006	2.8852312127878825	5.6243810668325835	0.07354443309499513
1.1200000000000008	3.209814602883955	0.0	56.0	7.089631966329745	3.352294754091756	0.0
1.1220000000000008	0.7960082398718241	0.0	56.1	6.101196737416479	5.278702584766585	0.0
1.1240000000000008	0.0612314030670634	0.0	56.2	5.908045707158408	4.486408171433794	0.0
1.1260000000000008	0.6187594415197984	0.32686414708886624	56.300000000000004	4.440696579522096	3.6354887493179247	0.32686414708886624
1.1280000000000008	3.103465323872739	0.033707865168539436	56.400000000000006	4.9804323738321425	4.4070893185228135	0.033707865168539436
1.1300000000000008	3.209814602883955	0.0	56.5	3.758865369855225	3.7283524846838128	0.0
1.1320000000000008	0.5833096818493934	0.0	56.6	5.731533719634687	1.6488687885402789	0.0
1.1340000000000008	0.0612314030670634	0.0	56.7	3.8515369009147715	7.148631406181862	0.0
1.1360000000000008	1.102165255207141	0.24310520939734434	56.800000000000004	6.480640695264357	3.0694027019500334	0.24310520939734434
1.1380000000000008	3.206591897459373	0.0010214504596525909	56.900000000000006	1.715325147938026	0.9898558845921936	0.0010214504596525909
1.1400000000000008	3.209814602883955	0.0	57.0	1.0776781854957174	1.470388888880732	0.0
1.1420000000000008	0.41250629434653235	0.0	57.1	1.9516887968719356	4.2400742537717155	0.0
1.1440000000000008	0.0612314030670634	0.0	57.2	1.6261275261317087	2.3323740543755718	0.0
1.1460000000000008	1.4985580224307622	0.20122574055158318	57.300000000000004	1.5079521754355796	0.8470485708429035	0.20122574055158318
1.1480000000000008	3.206591897459373	0.0010214504596525909	57.400000000000006	3.390806322037013	2.231065685152958	0.0010214504596525909
1.1500000000000008	3.196923781185626	0.0	57.5	4.940569996755913	0.9843272082327233	0.0
1.1520000000000008	0.261039139391165	0.0	57.6	2.211885477749096	5.5370295346716265	0.0
1.1540000000000008	0.0612314030670634	0.0	57.7	1.8194755131493892	2.876205914576644	0.0
1.1560000000000008	1.8433875028610665	0.13074565883554654	57.800000000000004	4.4143061894582445	1.1295688892706754	0.13074565883554654
1.1580000000000008	3.209814602883955	0.0010214504596527316	57.900000000000006	4.673129310434436	4.508878044465546	0.0010214504596527316
1.1600000000000008	2.916548409246967	0.0	58.0	4.504242606785427	3.411012792468824	0.0
1.1620000000000008	0.1546898603799496	0.0	58.1	4.138046141302202	3.977975312288783	0.0
1.1640000000000008	0.0612314030670634	0.0	58.2	4.5601861307381055	1.6278203024854376	0.0
1.1660000000000008	2.1205401693751433	0.08988764044943799	58.300000000000004	2.9987177021975326	7.893610600166207	0.08988764044943799
1.1680000000000008	3.2130373083085373	0.0	58.400000000000006	4.121353641492364	9.08269770172849	0.0
1.1700000000000008	2.471815060654612	0.0	58.5	2.6684651642702155	8.3741716845682	0.0
1.1720000000000008	0.0612314030670634	0.0	58.6	3.1857699411602143	3.522616569795506	0.0
1.1740000000000008	0.0612314030670634	0.0	58.7	5.329377527956234	6.063323886836877	0.0
1.1760000000000008	2.339684138246738	0.05005107252298272	58.800000000000004	5.934401074029734	6.03474578949857	0.05005107252298272
1.1780000000000008	3.2130373083085373	0.0	58.900000000000006	5.125774373512053	6.344159221829715	0.0
1.1800000000000008	2.143099107347219	0.0	59.0	4.960411263868081	4.871873834388881	0.0
1.1820000000000008	0.0612314030670634	0.0010214504596527095	59.1	4.019143899304129	4.0847077700912955	0.0010214504596527095
1.1840000000000008	0.0612314030670634	0.0	59.2	5.910201273790115	3.177015426993992	0.0
1.1860000000000008	2.555605401693751	0.017364657814096154	59.300000000000004	5.082019989024811	1.9082053759820636	0.017364657814096154
1.1880000000000008	3.2130373083085373	0.0	59.400000000000006	7.81052908994854	8.970439329522318	0.0
1.1900000000000008	1.981963836118105	0.0	59.5	1.8285084337649802	6.827200239071551	0.0
1.1920000000000008	0.06445410849164569	0.0	59.6	9.375183453527427	1.5386662442695815	0.0
1.1940000000000008	0.06767681391622797	0.0	59.7	4.347537907578782	1.5471005475853223	0.0
1.1960000000000008	2.839203479056992	0.0	59.800000000000004	3.98766029760484	1.6677242772221776	0.0
1.1980000000000008	3.209814602883955	0.0010214504596527316	59.900000000000006	7.326191716938887	4.259727431227806	0.0010214504596527316
1.2000000000000008	1.7821560997940031	0.0	60.0	3.0886784290658356	7.449744166973636	0.0
1.2020000000000008	0.0612314030670634	0.0	60.1	4.020997830366131	1.39748695599748	0.0
1.2040000000000008	0.06767681391622797	0.10520939734422882	60.2	2.536466385937107	1.857074014410271	0.10520939734422882
1.2060000000000008	2.9455527580682075	0.024514811031664994	60.300000000000004	3.29262564707257	3.0510392352221096	0.024514811031664994
1.2080000000000009	3.2130373083085373	0.0	60.400000000000006	1.6040653396851452	5.956220808103473	0.0
1.2100000000000009	1.4566628519111924	0.0	60.5	0.5090083340943095	3.7634432775592237	0.0
1.2120000000000009	0.0612314030670634	0.0	60.6	1.732350967577427	1.8310647311290384	0.0
1.2140000000000009	0.5317463950560769	0.0868232890704801	60.7	3.056440707385539	1.2018759594964488	0.0868232890704801
1.2160000000000009	3.0905745021744107	0.03166496424923398	60.800000000000004	4.287370591613211	1.3401366466618476	0.03166496424923398
1.2180000000000009	3.2130373083085373	0.0	60.900000000000006	2.154582475699999	4.019375668201135	0.0
1.2200000000000009	1.1118333714808881	0.0	61.0	1.0582378303748952	1.958930333889028	0.0
1.2220000000000009	0.0612314030670634	0.0	61.1	8.060184645479355	2.184392556287032	0.0
1.2240000000000009	0.8926894026092926	0.11338100102145046	61.2	10.150536777452665	2.000427629809022	0.11338100102145046
1.2260000000000009	3.206591897459373	0.0010214504596525909	61.300000000000004	4.295969543754129	5.225512966819789	0.0010214504596525909
1.2280000000000009	3.2130373083085373	0.0	61.400000000000006	1.438496835715004	2.2927286137636886	0.0
1.2300000000000009	0.8153444724193178	0.0	61.5	5.728129011871262	1.1532601672787197	0.0
1.2320000000000009	0.0612314030670634	0.0	61.6	2.7425339387711016	4.005623652230168	0.0
1.2340000000000009	1.211737239642939	0.0755873340143003	61.7	4.3863371471892725	6.873721745908062	0.0755873340143003
1.2360000000000009	3.209814602883955	0.0	61.800000000000004	6.654489843401679	0.558272853469226	0.0
1.2380000000000009	3.209814602883955	0.0010214504596527316	61.900000000000006	4.2990168327782445	2.6012818973664844	0.0010214504596527316
1.2400000000000009	0.5285236896314945	0.0	62.0	3.043542477826869	4.927867123969272	0.0
1.2420000000000009	0.0612314030670634	0.0	62.1	1.3048468967785911	3.660363173211699	0.0
1.2440000000000009	1.5468986037994965	0.05720122574055156	62.2	2.7975935626827533	7.712712777374482	0.05720122574055156
1.2460000000000009	3.209814602883955	0.0	62.300000000000004	7.627115704007002	3.2407483886361694	0.0
1.2480000000000009	3.196923781185626	0.0	62.400000000000006	4.499515236193902	1.516615322604493	0.0
1.2500000000000009	0.32227054245822845	0.009193054136874355	62.5	5.203150978552971	4.343239166145602	0.009193054136874355
1.252000000000001	0.0612314030670634	0.0	62.6	3.6033520318001675	8.925990442103174	0.0
1.254000000000001	1.737038223849851	0.04085801838610828	62.7	6.243094393051478	4.346560506022097	0.04085801838610828
1.256000000000001	3.209814602883955	0.0	62.800000000000004	6.2806774198521165	5.240484640305362	0.0
1.258000000000001	2.935884641794461	0.006128702757916249	62.900000000000006	1.4003423794959418	2.699717181114806	0.006128702757916249
1.260000000000001	0.13857633325703822	0.0	63.0	0.9730925614519533	3.3493296485825708	0.0
1.262000000000001	0.0612314030670634	0.0	63.1	1.8610366368938127	3.7140345619368507	0.0
1.264000000000001	2.0045227740901805	0.08580183861082734	63.2	6.203000707951399	3.7995185971659984	0.08580183861082734
1.266000000000001	3.2130373083085373	0.0	63.300000000000004	2.827603595801053	5.056557343994255	0.0
1.268000000000001	2.5266010528725107	0.0	63.400000000000006	4.799016229247816	6.705989809135584	0.0
1.270000000000001	0.0612314030670634	0.0	63.5	4.432676051478027	3.7732853991615203	0.0
1.272000000000001	0.0612314030670634	0.0	63.6	5.0014274987566045	6.269334914016504	0.0
1.274000000000001	2.2623392080567633	0.05822267620020429	63.7	6.89387051363978	7.312794270670339	0.05822267620020429
1.276000000000001	3.209814602883955	0.0010214504596527316	63.800000000000004	0.29030333233657596	4.087007756556033	0.0010214504596527316
1.278000000000001	2.1205401693751433	0.0	63.900000000000006	3.540942427844245	9.161930612855715	0.0
1.280000000000001	0.0612314030670634	0.0	64.0	3.8082270512991987	7.621072387029457	0.0
1.282000000000001	0.0612314030670634	0.0	64.10000000000001	2.579801304617291	3.8744029505855178	0.0
1.284000000000001	2.5201556420233464	0.019407558733401338	64.2	5.564857923677483	1.4388162373272595	0.019407558733401338
1.286000000000001	3.2130373083085373	0.0	64.3	4.924831471240338	2.058901864287891	0.0
1.288000000000001	1.7821560997940031	0.002042900919305463	64.4	3.0634559396624947	3.899399168722183	0.002042900919305463
1.290000000000001	0.06445410849164569	0.0	64.5	1.0031326209603533	2.4577800513763424	0.0
1.292000000000001	0.06767681391622797	0.0	64.60000000000001	2.242600846068689	8.059797614910623	0.0
1.294000000000001	2.716740672922865	0.013278855975485228	64.7	4.64597651945166	3.8817198704397615	0.013278855975485228
1.296000000000001	3.2130373083085373	0.0	64.8	4.3503721546234475	2.373739100814296	0.0
1.298000000000001	1.4469947356374455	0.0	64.9	2.956104224647165	4.624412921262624	0.0
1.300000000000001	0.0612314030670634	0.0	65.0	4.1967536784953525	5.2138005341915115	0.0
1.302000000000001	0.06767681391622797	0.0	65.10000000000001	6.666178634567898	1.4729992843901198	0.0
1.304000000000001	2.871430533302815	0.0	65.2	2.016952660326507	2.9817741318190625	0.0
1.306000000000001	3.2130373083085373	0.0	65.3	1.0644211013823728	2.537896176289085	0.0
1.308000000000001	1.1633966582742046	0.00715015321756891	65.4	3.5749535597589643	4.339010927587332	0.00715015321756891
1.310000000000001	0.0612314030670634	0.0	65.5	1.0948018544731495	2.2703143234306298	0.0
1.312000000000001	0.0773449301899748	0.0	65.60000000000001	4.015262827232585	6.7647644696653995	0.0
1.314000000000001	3.0228976882581824	0.0	65.7	3.168449972311283	4.854839173893572	0.0
1.316000000000001	3.209814602883955	0.0010214504596527316	65.8	2.7869033926141915	6.766557179990479	0.0010214504596527316
1.318000000000001	0.8024536507209887	0.026557711950970387	65.9	6.44796092439745	5.579093602394142	0.026557711950970387
1.320000000000001	0.0612314030670634	0.0	66.0	3.4009830890855457	2.379056685990378	0.0
1.322000000000001	0.6477637903410391	0.05413687436159344	66.10000000000001	1.9490979729396651	4.899760869634981	0.05413687436159344
1.324000000000001	3.097019913023575	0.019407558733401477	66.2	12.15729478822795	1.059189255574673	0.019407558733401477
1.326000000000001	3.209814602883955	0.0	66.3	5.295358011729244	5.718902213250791	0.0
1.328000000000001	0.589755092698558	0.028600612870275814	66.4	10.691048767402853	8.46906406373139	0.028600612870275814
1.330000000000001	0.0612314030670634	0.0	66.5	10.175304566194596	5.1618786504695615	0.0
1.332000000000001	1.2761913481345846	0.0	66.60000000000001	7.7783889139080395	4.098492304483384	0.0
1.334000000000001	3.206591897459373	0.0	66.7	6.098349022934026	9.652183625900847	0.0
1.336000000000001	3.216260013733119	0.0	66.8	3.558216500654414	2.269730072035639	0.0
1.338000000000001	0.4415106431677729	0.03472931562819203	66.9	2.247961080711192	6.927259804872581	0.03472931562819203
1.340000000000001	0.0612314030670634	0.0	67.0	7.2020479406683995	3.8882793814204866	0.0
1.342000000000001	1.6629159990844586	0.0	67.10000000000001	3.312100106673043	8.133452218284134	0.0
1.344000000000001	3.209814602883955	0.0	67.2	1.3811094840008162	8.493562985313769	0.0
1.346000000000001	3.196923781185626	0.0020429009193053222	67.3	7.013346038915998	8.614142373610477	0.0020429009193053222
1.348000000000001	0.3029343099107347	0.03268641470888662	67.4	4.756064747849263	6.197387472906692	0.03268641470888662
1.350000000000001	0.0612314030670634	0.0	67.5	6.576180723729319	8.248223217550901	0.0
1.352000000000001	1.9271778439002059	0.0	67.60000000000001	10.122757735369907	6.54658531895505	0.0
1.354000000000001	3.209814602883955	0.0	67.7	15.378227655055095	4.864721410927608	0.0
1.356000000000001	2.9133257038223848	0.08988764044943827	67.8	17.833947776697883	2.3506578295987026	0.08988764044943827
1.358000000000001	0.15791256580453192	0.05515832482124618	67.9	17.011801415865005	3.89196761880211	0.05515832482124618
1.360000000000001	0.0612314030670634	0.0	68.0	8.16126281071024	8.183545608629936	0.0
1.362000000000001	2.265561913481346	0.0	68.10000000000001	12.649888020282882	6.304391197653709	0.0
1.364000000000001	3.2130373083085373	0.0	68.2	12.732835459679844	5.738349169549661	0.0
1.366000000000001	2.529823758297093	0.20939734422880504	68.3	4.490436047572626	3.2737949300980653	0.20939734422880504
1.368000000000001	0.0612314030670634	0.04800817160367722	68.4	5.064929210874961	5.580661672002836	0.04800817160367722
1.370000000000001	0.0612314030670634	0.0	68.5	7.357924226513548	3.3255434083904385	0.0
1.372000000000001	2.4911512932021056	0.0	68.60000000000001	6.94264182201554	13.569723730299623	0.0
1.374000000000001	3.2130373083085373	0.0	68.7	8.065345301682157	2.9378254993735715	0.0
1.376000000000001	2.062531471732662	0.2093973442288049	68.8	11.674043984544515	2.2075459482287636	0.2093973442288049
1.378000000000001	0.06445410849164569	0.013278855975485185	68.9	10.809025977428158	3.207038195266197	0.013278855975485185
1.380000000000001	0.0612314030670634	0.0	69.0	8.924019083033041	2.1909415385054025	0.0
1.382000000000001	2.678068207827878	0.0	69.10000000000001	4.408393150612931	8.445550184878362	0.0
1.384000000000001	3.2130373083085373	0.0	69.2	3.113777300501431	6.678323484050242	0.0
1.386000000000001	1.7015884641794459	0.21756894790602654	69.3	4.26872204511009	4.827326639083222	0.21756894790602654
1.388000000000001	0.0612314030670634	0.0	69.4	3.207425042270201	5.209836952923265	0.0
1.390000000000001	0.06767681391622797	0.0	69.5	1.8426559435742098	10.842985252411271	0.0
1.392000000000001	2.890766765850309	0.0	69.60000000000001	10.682356394667336	7.447960808843493	0.0
1.394000000000001	3.2130373083085373	0.0	69.7	7.344855072550899	3.6341567682815095	0.0
1.396000000000001	1.2600778210116732	0.26557711950970375	69.8	3.045313408509064	6.070403624381223	0.26557711950970375
1.398000000000001	0.0612314030670634	0.0	69.9	1.1611784041641326	4.326127963636044	0.0
1.400000000000001	0.4576241702906843	0.0	70.0	3.673308403028704	7.6425343392751435	0.0
1.402000000000001	3.087351796749828	0.0	70.10000000000001	4.491340794705341	8.206923268219548	0.0
1.404000000000001	3.209814602883955	0.0010214504596527316	70.2	1.1279484481595685	3.0969591297842873	0.0010214504596527316
1.406000000000001	0.9345845731288625	0.25842696629213485	70.3	2.675665593775953	1.85816329229136	0.25842696629213485
1.408000000000001	0.0612314030670634	0.0010214504596527095	70.4	8.550273311925402	6.285701066613124	0.0010214504596527095
1.410000000000001	0.9764797436484322	0.0	70.5	3.970021978840787	2.225156609780938	0.0
1.412000000000001	3.200146486610208	0.0	70.60000000000001	2.2734741478671276	2.8137174840033072	0.0
1.414000000000001	3.209814602883955	0.0010214504596527316	70.7	4.6613559684805885	5.0468933228796065	0.0010214504596527316
1.416000000000001	0.6123140306706341	0.28804902962206336	70.8	6.604597035244212	4.603517919141984	0.28804902962206336
1.418000000000001	0.0612314030670634	0.0	70.9	4.718798547844497	2.8669939607138697	0.0
1.420000000000001	1.372872510872053	0.0	71.0	9.467746073241589	9.303363727475991	0.0
1.422000000000001	3.206591897459373	0.0	71.10000000000001	6.248545730029497	1.043122178241588	0.0
1.424000000000001	3.20336919203479	0.0030643513789581946	71.2	0.8894342106325231	2.033976330457139	0.0030643513789581946
1.426000000000001	0.39639276722362093	0.3013278855975486	71.3	0.6151807267906481	11.543299226333355	0.3013278855975486
1.428000000000001	0.0612314030670634	0.0	71.4	6.568551337804189	9.269462556878858	0.0
1.430000000000001	1.4598855573357747	0.0	71.5	4.2876295911572555	11.276923012259239	0.0
1.432000000000001	3.209814602883955	0.0	71.60000000000001	4.090294297481528	9.675672517323845	0.0
1.434000000000001	3.196923781185626	0.005107252298263517	71.7	4.932108974407861	6.459796522790261	0.005107252298263517
1.436000000000001	0.3029343099107347	0.2461695607763024	71.8	4.849423652376255	5.772324103817341	0.2461695607763024
1.438000000000001	0.0612314030670634	0.0	71.9	5.6985827359278	14.128896221496225	0.0
1.440000000000001	1.7853788052185853	0.0	72.0	5.574724870224139	9.947338365550449	0.0
1.442000000000001	3.209814602883955	0.0	72.10000000000001	5.567596562624787	8.428370868329589	0.0
1.444000000000001	2.8488715953307393	0.11440245148110312	72.2	9.594395615368908	8.406973660836131	0.11440245148110312
1.446000000000001	0.13857633325703822	0.21961184882533202	72.3	8.71443395295062	15.533147856217939	0.21961184882533202
1.448000000000001	0.0612314030670634	0.0	72.4	5.487807373338603	9.785035648908831	0.0
1.450000000000001	2.0593087663080794	0.0	72.5	6.9671645538753655	6.280391157849226	0.0
1.452000000000001	3.2130373083085373	0.0	72.60000000000001	3.260805543532729	1.1715113040777694	0.0
1.454000000000001	2.255893797207599	0.3023493360572012	72.7	5.21271236466227	7.667930826782462	0.3023493360572012
1.456000000000001	0.0612314030670634	0.17671092951991826	72.8	5.380704951402022	5.981371340037552	0.17671092951991826
1.458000000000001	0.0612314030670634	0.0	72.9	2.6791332044370795	2.977902427458215	0.0
1.460000000000001	2.3429068436713205	0.0	73.0	9.03216820385473	6.4656525600756645	0.0
1.462000000000001	3.2130373083085373	0.0	73.10000000000001	2.54003350676568	4.72854647950011	0.0
1.464000000000001	1.930400549324788	0.40755873340143006	73.2	3.1384269160697222	10.786184140268295	0.40755873340143006
1.466000000000001	0.0612314030670634	0.12870275791624108	73.3	5.906261385546634	4.628340727666989	0.12870275791624108
1.468000000000001	0.0612314030670634	0.0	73.4	7.933852234798615	4.874746450867689	0.0
1.470000000000001	2.597500572213321	0.0	73.5	7.438926869603976	3.276406834660815	0.0
1.472000000000001	3.2130373083085373	0.0	73.60000000000001	7.362289123355447	6.146748012689065	0.0
1.474000000000001	1.601684596017395	0.50561797752809	73.7	5.315058205987071	3.505210020450603	0.50561797752809
1.476000000000001	0.0612314030670634	0.08171603677221656	73.8	9.327000212494955	4.38507163386208	0.08171603677221656
1.478000000000001	0.06767681391622797	0.0	73.9	5.461619324944716	6.506374088967629	0.0
1.480000000000001	2.826312657358663	0.0	74.0	1.0432960455781388	3.1291897388653527	0.0
1.482000000000001	3.2130373083085373	0.0	74.10000000000001	5.187909730403729	2.3862870029621797	0.0
1.484000000000001	1.4792217898832682	0.5393258426966294	74.2	7.291603903722292	5.458495566068067	0.5393258426966294
1.486000000000001	0.0612314030670634	0.04085801838610828	74.3	1.144446849758131	3.900895543281379	0.04085801838610828
1.488000000000001	0.3093797207598992	0.0	74.4	5.94130177138831	5.592999562234447	0.0
1.490000000000001	3.0035614557106887	0.0	74.5	3.250677463264843	6.444769592457151	0.0
1.492000000000001	3.209814602883955	0.0010214504596527316	74.60000000000001	1.3705700814894743	6.212371331648833	0.0010214504596527316
1.494000000000001	1.2955275806820783	0.41777323799795707	74.7	4.007524765853643	9.150248013619834	0.41777323799795707
1.496000000000001	0.0612314030670634	0.0020429009193054146	74.8	3.3241236801608722	5.636728094756042	0.0020429009193054146
1.498000000000001	0.8153444724193178	0.0	74.9	6.491434816883646	3.141999999353389	0.0
1.500000000000001	3.164696726939803	0.0	75.0	2.283210863109991	5.75937841964101	0.0
1.5020000000000011	3.209814602883955	0.0010214504596527316	75.10000000000001	6.006559873051353	12.02716277386447	0.0010214504596527316
1.5040000000000011	1.0377111467154954	0.4136874361593464	75.2	5.441015033654395	4.955919350852368	0.4136874361593464
1.5060000000000011	0.0612314030670634	0.0	75.3	4.319435212972166	9.09072700863595	0.0
1.5080000000000011	1.2633005264362553	0.0	75.4	9.179463978548744	12.541396515173865	0.0
1.5100000000000011	3.209814602883955	0.0	75.5	4.596667655976638	12.675511531248011	0.0
1.5120000000000011	3.209814602883955	0.0010214504596527316	75.60000000000001	3.0706173057958126	7.467699286247503	0.0010214504596527316
1.5140000000000011	0.7573357747768368	0.3932584269662922	75.7	10.268384233393178	10.135005806290495	0.3932584269662922
1.5160000000000011	0.0612314030670634	0.0	75.8	11.021872056651965	7.579866427701083	0.0
1.5180000000000011	1.6242435339894712	0.0	75.9	14.77566599974664	2.5327315344138053	0.0
1.5200000000000011	3.206591897459373	0.0	76.0	7.420124679630492	5.846395551795167	0.0
1.5220000000000011	3.209814602883955	0.0010214504596527316	76.10000000000001	13.543193493605223	7.553055491941258	0.0010214504596527316
1.5240000000000011	0.5736415655756466	0.3503575076608785	76.2	6.807182660602564	4.96428467722716	0.3503575076608785
1.5260000000000011	0.0612314030670634	0.0	76.3	2.190990178302002	4.97842982733772	0.0
1.5280000000000011	1.872391851682307	0.0	76.4	0.49094155003684387	4.318844265131248	0.0
1.5300000000000011	3.209814602883955	0.0	76.5	8.535579772579624	9.3813437793929	0.0
1.5320000000000011	3.196923781185626	0.005107252298263517	76.60000000000001	6.779839254301468	9.735224215091941	0.005107252298263517
1.5340000000000011	0.3577203021286335	0.32890704800817167	76.7	2.1772948860961083	10.015790296769497	0.32890704800817167
1.5360000000000011	0.0612314030670634	0.0	76.80000000000001	5.27730567178105	1.696606163078402	0.0
1.5380000000000011	2.08831311512932	0.0	76.9	4.802123306611457	3.9109547368657087	0.0
1.5400000000000011	3.209814602883955	0.0	77.0	9.081364275823574	10.332030958401242	0.0
1.5420000000000011	2.8972121766994734	0.1001021450459653	77.10000000000001	6.000703874673911	11.22900884984696	0.1001021450459653
1.5440000000000011	0.1417990386816205	0.2931562819203269	77.2	4.210207987058055	13.105247754714949	0.2931562819203269
1.5460000000000012	0.0612314030670634	0.0	77.30000000000001	18.712713257180948	5.992182299811606	0.0
1.5480000000000012	2.268784618905928	0.0	77.4	3.6652140868719645	3.449614236476305	0.0
1.5500000000000012	3.2130373083085373	0.0	77.5	12.064497371254488	1.651962771279589	0.0
1.5520000000000012	2.4073609521629664	0.25434116445352395	77.60000000000001	0.31927771074388805	11.707209883227373	0.25434116445352395
1.5540000000000012	0.0612314030670634	0.23084780388151177	77.7	3.292430456216908	9.733891046748576	0.23084780388151177
1.5560000000000012	0.0612314030670634	0.0	77.80000000000001	9.012316921514559	5.415773259262979	0.0
1.5580000000000012	2.4138063630121307	0.0	77.9	4.678260716275054	1.2708463236308218	0.0
1.5600000000000012	3.2130373083085373	0.0	78.0	8.966778691513742	6.58766862113909	0.0
1.5620000000000012	1.9658503089951933	0.3942798774259449	78.10000000000001	11.199567248481014	10.360843767491476	0.3942798774259449
1.5640000000000012	0.0612314030670634	0.1787538304392237	78.2	15.524369587903582	8.701926998496424	0.1787538304392237
1.5660000000000012	0.0612314030670634	0.0	78.30000000000001	13.321412396220907	7.306264247561614	0.0
1.5680000000000012	2.574941634241245	0.0	78.4	11.70411870162389	16.236084708409997	0.0
1.5700000000000012	3.2130373083085373	0.0	78.5	2.199649391460884	1.8639552612670212	0.0
1.5720000000000012	1.633911650263218	0.501532175689479	78.60000000000001	7.035165159714722	6.384608975645196	0.501532175689479
1.5740000000000012	0.0612314030670634	0.12768130745658837	78.7	12.02448354490241	3.8009499625543235	0.12768130745658837
1.5760000000000012	0.06767681391622797	0.0	78.80000000000001	5.997831295883676	3.9757286328320065	0.0
1.5780000000000012	2.7715266651407644	0.0	78.9	3.092704378716229	10.336916679601963	0.0
1.5800000000000012	3.2130373083085373	0.0	79.0	11.82226216734395	8.52055546687251	0.0
1.5820000000000012	1.2987502861066604	0.6016343207354444	79.10000000000001	9.321079174773203	10.138451383434695	0.6016343207354444
1.5840000000000012	0.0612314030670634	0.0898876404494382	79.2	6.936265154424071	4.212756427499988	0.0898876404494382
1.5860000000000012	0.06767681391622797	0.0	79.30000000000001	4.380577007734531	9.118840731418706	0.0
1.5880000000000012	2.929439230945296	0.0	79.4	8.093084970100659	7.4194790679501885	0.0
1.5900000000000012	3.209814602883955	0.0	79.5	8.457712433506119	11.357671846376372	0.0
1.5920000000000012	1.0087067978942548	0.6905005107252299	79.60000000000001	3.7155678503784637	4.765951933695957	0.6905005107252299
1.5940000000000012	0.0612314030670634	0.04290091930541369	79.7	4.41136733581716	3.5883638218458755	0.04290091930541369
1.5960000000000012	0.6509864957656213	0.0	79.80000000000001	3.1632271222329913	10.211660355973509	0.0
1.5980000000000012	3.119578850995651	0.0	79.9	10.183552126790186	2.0728487072003774	0.0
1.6000000000000012	3.2130373083085373	0.0	80.0	4.109180693899908	17.131318039135827	0.0
1.6020000000000012	0.7573357747768368	0.5852911133810009	80.10000000000001	8.418854151592518	6.513946032443492	0.5852911133810009
1.6040000000000012	0.0612314030670634	0.0010214504596527095	80.2	8.973848271893715	1.0185851507320143	0.0010214504596527095
1.6060000000000012	1.1215014877546348	0.0	80.30000000000001	6.425600158847288	11.095104696340616	0.0
1.6080000000000012	3.209814602883955	0.0	80.4	5.494451885629349	13.163327990730398	0.0
1.6100000000000012	3.209814602883955	0.0010214504596527316	80.5	2.628663552444054	9.824308426508079	0.0010214504596527316
1.6120000000000012	0.5962005035477226	0.5260469867211441	80.60000000000001	9.30876269866879	14.28701128195992	0.5260469867211441
1.6140000000000012	0.0612314030670634	0.0	80.7	5.97091357138646	7.723225689656541	0.0
1.6160000000000012	1.4502174410620279	0.0	80.80000000000001	17.072388071567147	11.87429929332223	0.0
1.6180000000000012	3.206591897459373	0.0	80.9	1.5955151133615342	16.464158838376434	0.0
1.6200000000000012	3.206591897459373	0.0020429009193053222	81.0	4.889186131488077	12.478127357764256	0.0020429009193053222
1.6220000000000012	0.42539711604486147	0.49846782431052106	81.10000000000001	11.442825160194925	8.191786208966253	0.49846782431052106
1.6240000000000012	0.0612314030670634	0.0	81.2	8.947308637871854	1.3110729406538217	0.0
1.6260000000000012	1.8111604486152437	0.0	81.30000000000001	5.50857236473962	9.611834383196392	0.0
1.6280000000000012	3.209814602883955	0.0	81.4	12.260713732837084	8.082794033926529	0.0
1.6300000000000012	3.196923781185626	0.005107252298263517	81.5	18.484455627134842	11.29534713879974	0.005107252298263517
1.6320000000000012	0.2868207827878233	0.4473953013278857	81.60000000000001	6.614992855587786	0.821122128199679	0.4473953013278857
1.6340000000000012	0.0612314030670634	0.0010214504596527095	81.7	13.798030028931372	8.2292813476405	0.0010214504596527095
1.6360000000000012	2.1366536964980547	0.0	81.80000000000001	21.163513491817152	3.404533415043805	0.0
1.6380000000000012	3.209814602883955	0.0	81.9	18.759842089398962	7.014043806904688	0.0
1.6400000000000012	2.935884641794461	0.0878447395301328	82.0	13.83972892764153	9.749803206613205	0.0878447395301328
1.6420000000000012	0.16435797665369647	0.4198161389172626	82.10000000000001	7.760518260130677	4.593571887963293	0.4198161389172626
1.6440000000000012	0.0612314030670634	0.0	82.2	12.072077497502674	9.99458259372406	0.0
1.6460000000000012	2.4041382467383836	0.0	82.30000000000001	8.022590163235186	15.542037381098694	0.0
1.6480000000000012	3.2130373083085373	0.0	82.4	7.932982018115826	8.520924954672738	0.0
1.6500000000000012	2.6168368047608146	0.18896833503575083	82.5	11.763600613344034	6.547655045731915	0.18896833503575083
1.6520000000000012	0.08379034103913939	0.3432073544433095	82.60000000000001	9.888786496479403	5.547498088966104	0.3432073544433095
1.6540000000000012	0.0612314030670634	0.0	82.7	13.485015111023904	10.206290767042692	0.0
1.6560000000000012	2.529823758297093	0.0	82.80000000000001	13.242863534398118	17.335284168697193	0.0
1.6580000000000013	3.2130373083085373	0.0	82.9	6.662814038258657	6.8857830781436045	0.0
1.6600000000000013	2.152767223620966	0.33503575076608777	83.0	14.722706449483162	5.893859503542282	0.33503575076608777
1.6620000000000013	0.0612314030670634	0.2951991828396323	83.10000000000001	6.340809341657181	5.4517099474786415	0.2951991828396323
1.6640000000000013	0.06767681391622797	0.0	83.2	7.365806971168968	3.430513518306707	0.0
1.6660000000000013	2.7521904325932707	0.0	83.30000000000001	3.1257520334095896	16.583817944124533	0.0
1.6680000000000013	3.2130373083085373	0.0	83.4	7.926728701114493	22.813109454856402	0.0
1.6700000000000013	1.8047150377660792	0.4453524004085802	83.5	8.164144692990053	6.371398155716838	0.4453524004085802
1.6720000000000013	0.0612314030670634	0.21552604698672118	83.60000000000001	15.379268219848601	7.192283289963388	0.21552604698672118
1.6740000000000013	0.06767681391622797	0.0	83.7	4.611111956471319	20.922434470601264	0.0
1.6760000000000013	2.942330052643625	0.0	83.80000000000001	5.950951520010192	12.8144182389574	0.0
1.6780000000000013	3.2130373083085373	0.0	83.9	5.252506776461027	20.621591976867215	0.0
1.6800000000000013	1.4695536736095216	0.5515832482124617	84.0	10.416247666170447	3.707136274015109	0.5515832482124617
1.6820000000000013	0.0612314030670634	0.177732379979571	84.10000000000001	6.478126794985985	17.33521252680751	0.177732379979571
1.6840000000000013	0.43828793774319064	0.0	84.2	11.48903631725107	11.936175345020345	0.0
1.6860000000000013	3.051902037079423	0.0	84.30000000000001	10.421399687181596	14.178587548420559	0.0
1.6880000000000013	3.209814602883955	0.0	84.4	25.053936597715417	16.09371747368095	0.0
1.6900000000000013	1.0634927901121538	0.6823289070480081	84.5	15.756690651204144	23.102915161453257	0.6823289070480081
1.6920000000000013	0.0612314030670634	0.12359550561797757	84.60000000000001	16.78716532041423	12.648980331814489	0.12359550561797757
1.6940000000000013	0.895912108033875	0.0	84.7	13.534784813339021	14.96740814708188	0.0
1.6960000000000013	3.20336919203479	0.0	84.80000000000001	34.745590444508075	20.433005151650274	0.0
1.6980000000000013	3.209814602883955	0.0	84.9	25.30319863205561	17.317550384196974	0.0
1.7000000000000013	0.783117418173495	0.7650663942798775	85.0	18.4121593018832	19.993751797307553	0.7650663942798775
1.7020000000000013	0.0612314030670634	0.0898876404494382	85.10000000000001	8.775627659596081	8.492273284023488	0.0898876404494382
1.7040000000000013	1.211737239642939	0.0	85.2	17.134847881895034	18.02569825942295	0.0
1.7060000000000013	3.206591897459373	0.0	85.30000000000001	16.154139032023277	13.444323467091817	0.0
1.7080000000000013	3.209814602883955	0.0	85.4	14.045721659223165	17.56348066053234	0.0
1.7100000000000013	0.5124101625085832	0.8478038815117468	85.5	0.9152616117776253	8.831244463005705	0.8478038815117468
1.7120000000000013	0.0612314030670634	0.04085801838610828	85.60000000000001	8.65647085225982	12.200644281814025	0.04085801838610828
1.7140000000000013	1.359981689173724	0.0	85.7	14.832376506008984	3.2154657643771842	0.0
1.7160000000000013	3.209814602883955	0.0	85.80000000000001	8.347560941032812	5.2230004421041105	0.0
1.7180000000000013	3.200146486610208	0.004085801838610926	85.9	25.772740035795675	14.305553919419838	0.004085801838610926
1.7200000000000013	0.39961547264820324	0.7109295199182841	86.0	7.613211313579509	23.14051494618256	0.7109295199182841
1.7220000000000013	0.0612314030670634	0.005107252298263531	86.10000000000001	4.884841796920473	15.999874889350759	0.005107252298263531
1.7240000000000013	1.4598855573357747	0.0	86.2	8.137356127353046	13.648132132741337	0.0
1.7260000000000013	3.206591897459373	0.0	86.30000000000001	7.234416919160349	15.67729148519314	0.0
1.7280000000000013	3.196923781185626	0.005107252298263517	86.4	9.641042257231938	19.876998042617437	0.005107252298263517
1.7300000000000013	0.32227054245822845	0.6261491317671095	86.5	8.200741666074919	22.393970384585117	0.6261491317671095
1.7320000000000013	0.0612314030670634	0.0	86.60000000000001	3.894682059661178	7.830012761639239	0.0
1.7340000000000013	1.6177981231403067	0.0	86.7	19.5467971425978	14.374744379425897	0.0
1.7360000000000013	3.209814602883955	0.0	86.80000000000001	13.328509794141752	19.423967968600177	0.0
1.7380000000000013	2.9004348821240558	0.09908069458631256	86.9	1.3445385318033671	28.638974897089824	0.09908069458631256
1.7400000000000013	0.14824444953078506	0.5709908069458632	87.0	5.536537969125167	6.951901385418139	0.5709908069458632
1.7420000000000013	0.0612314030670634	0.0	87.10000000000001	17.77574331013985	17.889707117768847	0.0
1.7440000000000013	1.7789333943694208	0.0	87.2	9.435979996791206	9.297355329472277	0.0
1.7460000000000013	3.2130373083085373	0.0	87.30000000000001	18.648595759877786	21.157723520590878	0.0
1.7480000000000013	2.423474479285878	0.25025536261491316	87.4	3.950511092268491	19.060527603596647	0.25025536261491316
1.7500000000000013	0.0612314030670634	0.5015321756894792	87.5	7.470235472646485	3.1036433706947473	0.5015321756894792
1.7520000000000013	0.0612314030670634	0.0	87.60000000000001	3.282624140241278	15.057978172151696	0.0
1.7540000000000013	1.9561821927214464	0.0	87.7	11.384287670585525	1.4569815204413517	0.0
1.7560000000000013	3.2130373083085373	0.0	87.80000000000001	10.082238132731531	8.244863048445954	0.0
1.7580000000000013	2.255893797207599	0.30337078651685395	87.9	19.291938834157648	15.726816703033569	0.30337078651685395
1.7600000000000013	0.0612314030670634	0.39632277834525037	88.0	10.33887643684389	17.04991099124515	0.39632277834525037
1.7620000000000013	0.0612314030670634	0.0	88.10000000000001	4.6324577740401836	23.2267119908034	0.0
1.7640000000000013	2.2494483863584347	0.0	88.2	11.624639797171367	8.219703311392314	0.0
1.7660000000000013	3.2130373083085373	0.0	88.30000000000001	17.379649807693756	5.555211780334442	0.0
1.7680000000000013	2.062531471732662	0.36465781409601633	88.4	6.617803020484226	24.43880049245226	0.36465781409601633
1.7700000000000014	0.0612314030670634	0.3248212461695608	88.5	6.128490689183783	6.197927703881826	0.3248212461695608
1.7720000000000014	0.0612314030670634	0.0	88.60000000000001	3.4447866227533255	5.025038837507532	0.0
1.7740000000000014	2.452478828107118	0.0	88.7	9.137287196681891	4.653758715386122	0.0
1.7760000000000014	3.2130373083085373	0.0	88.80000000000001	10.393990654703414	2.611494829946261	0.0
1.7780000000000014	1.8562783245593957	0.43003064351378967	88.9	19.54740977211762	16.812272930106733	0.43003064351378967
1.7800000000000014	0.06445410849164569	0.2696629213483146	89.0	15.086253755041286	22.82279276422025	0.2696629213483146
1.7820000000000014	0.0612314030670634	0.0	89.10000000000001	14.209732683149289	11.400116575001297	0.0
1.7840000000000014	2.6136140993362322	0.0	89.2	12.530563733487734	11.623188500855061	0.0
1.7860000000000014	3.2130373083085373	0.0	89.30000000000001	8.98494749738785	4.5542443505198245	0.0
1.7880000000000014	1.5855710688944837	0.5148110316649643	89.4	12.852268611456907	15.146860063722551	0.5148110316649643
1.7900000000000014	0.0612314030670634	0.20837589376915222	89.5	6.619697340971804	14.536541874600761	0.20837589376915222
1.7920000000000014	0.06767681391622797	0.0	89.60000000000001	3.038524980607435	15.581484612321873	0.0
1.7940000000000014	2.8327580682078275	0.0	89.7	19.069705839596804	15.774102606732963	0.0
1.7960000000000014	3.2130373083085373	0.0	89.80000000000001	18.158238898678224	12.837531807161305	0.0
1.7980000000000014	1.3470908674753947	0.5903983656792646	89.9	15.356383893068903	22.222445158143135	0.5903983656792646
1.8000000000000014	0.0612314030670634	0.15219611848825335	90.0	14.248785657189769	8.1327897749859	0.15219611848825335
1.8020000000000014	0.31582513160906384	0.0	90.10000000000001	18.907943692856097	18.805057978871027	0.0
1.8040000000000014	3.0132295719844358	0.0	90.2	10.543944370956648	13.650286376500587	0.0
1.8060000000000014	3.2130373083085373	0.0	90.30000000000001	11.335696427170843	6.630674941588443	0.0
1.8080000000000014	1.1376150148775461	0.6537282941777325	90.4	13.042693790375296	28.04407353934275	0.6537282941777325
1.8100000000000014	0.0612314030670634	0.10827374872318694	90.5	21.954833578118464	17.112265512981946	0.10827374872318694
1.8120000000000014	0.8250125886930647	0.0	90.60000000000001	16.780318334520995	30.340345919807028	0.0
1.8140000000000014	3.1904783703364616	0.0	90.7	23.086677442357065	4.636207713255606	0.0
1.8160000000000014	3.209814602883955	0.0	90.80000000000001	25.249820466919978	20.108552315945882	0.0
1.8180000000000014	0.9958159761959258	0.697650663942799	90.9	24.356981727009707	15.163306614562451	0.697650663942799
1.8200000000000014	0.0612314030670634	0.05617977528089888	91.0	22.289209797791383	9.466504529646672	0.05617977528089888
1.8220000000000014	1.1827328908216983	0.0	91.10000000000001	13.219542852618826	30.803933831512524	0.0
1.8240000000000014	3.2130373083085373	0.0	91.2	30.492289708000285	32.025143500722216	0.0
1.8260000000000014	3.209814602883955	0.0	91.30000000000001	15.198336093424127	26.026984949512926	0.0
1.8280000000000014	0.9088029297322041	0.5924412665985701	91.4	27.44129725538425	10.625650577194378	0.5924412665985701
1.8300000000000014	0.0612314030670634	0.01327885597548519	91.5	10.094420870076371	26.150207152192234	0.01327885597548519
1.8320000000000014	1.3793179217212175	0.0	91.60000000000001	28.963562018489228	18.810665994421065	0.0
1.8340000000000014	3.209814602883955	0.0	91.7	34.47912355588344	38.89991338917978	0.0
1.8360000000000014	3.209814602883955	0.0010214504596527316	91.80000000000001	25.727562263154624	39.79994117992984	0.0010214504596527316
1.8380000000000014	0.6928816662851911	0.5587334014300307	91.9	17.881481031467025	44.74426870243949	0.5587334014300307
1.8400000000000014	0.0612314030670634	0.0	92.0	22.070431176302794	43.428450946127434	0.0
1.8420000000000014	1.6951430533302816	0.0	92.10000000000001	36.91066523695886	87.23360966841433	0.0
1.8440000000000014	3.206591897459373	0.0	92.2	19.00939537476899	42.51281709933772	0.0
1.8460000000000014	3.209814602883955	0.0010214504596527316	92.30000000000001	25.273828205104966	39.4296224961941	0.0010214504596527316
1.8480000000000014	0.5317463950560769	0.5178753830439226	92.4	20.87502272927248	41.43481330980584	0.5178753830439226
1.8500000000000014	0.0612314030670634	0.0	92.5	40.93163672127329	53.06614701100291	0.0
1.8520000000000014	1.882059967956054	0.0	92.60000000000001	44.82970509479717	16.131779347698448	0.0
1.8540000000000014	3.209814602883955	0.0	92.7	70.05406117700993	45.668422663852674	0.0
1.8560000000000014	3.196923781185626	0.005107252298263517	92.80000000000001	54.05059048329095	12.780931274796593	0.005107252298263517
1.8580000000000014	0.3029343099107347	0.5148110316649643	92.9	44.7452196964122	20.972065052289516	0.5148110316649643
1.8600000000000014	0.0612314030670634	0.0010214504596527095	93.0	15.09970130375803	17.844371812233803	0.0010214504596527095
1.8620000000000014	2.097981231403067	0.0	93.10000000000001	33.038274712634426	21.282130284186675	0.0
1.8640000000000014	3.2130373083085373	0.0	93.2	48.37807619064045	51.78697787475345	0.0
1.8660000000000014	2.597500572213321	0.19509703779366708	93.30000000000001	51.885259852297466	26.64789320559454	0.19509703779366708
1.8680000000000014	0.06445410849164569	0.5137895812053116	93.4	18.976780127871685	26.21043423448192	0.5137895812053116
1.8700000000000014	0.0612314030670634	0.0	93.5	60.88598315994044	10.407622864327122	0.0
1.8720000000000014	2.233334859235523	0.0	93.60000000000001	63.071442532717896	51.87239519946954	0.0
1.8740000000000014	3.2130373083085373	0.0	93.7	37.78473203217936	16.05259108384576	0.0
1.8760000000000014	2.2172213321126115	0.31562819203268644	93.80000000000001	64.96610231308301	26.588642801815197	0.31562819203268644
1.8780000000000014	0.0612314030670634	0.4085801838610828	93.9	52.15125724845938	10.038456766139737	0.4085801838610828
1.8800000000000014	0.0612314030670634	0.0	94.0	42.17577463063526	33.21246093020789	0.0
1.8820000000000014	2.4460334172579534	0.0	94.10000000000001	10.492980488726884	31.067646318570933	0.0
1.8840000000000015	3.2130373083085373	0.0	94.2	30.360656278987435	5.4210200624464	0.0
1.8860000000000015	1.8143831540398259	0.44228804902962215	94.30000000000001	45.61710443386393	25.220577672199205	0.44228804902962215
1.8880000000000015	0.06445410849164569	0.31971399387129723	94.4	23.16619206349527	44.539181316592185	0.31971399387129723
1.8900000000000015	0.0612314030670634	0.0	94.5	70.2882697397376	36.39847572852145	0.0
1.8920000000000015	2.555605401693751	0.0	94.60000000000001	35.33647765639264	30.14741621821957	0.0
1.8940000000000015	3.2130373083085373	0.0	94.7	35.00876094402907	26.560235630715958	0.0
1.8960000000000015	1.4727763790341037	0.5505617977528091	94.80000000000001	18.38135262110825	63.492163319540936	0.5505617977528091
1.8980000000000015	0.0612314030670634	0.2645556690500511	94.9	17.088643161534	3.811631788952166	0.2645556690500511
1.9000000000000015	0.06767681391622797	0.0	95.0	47.50643423755274	16.6484787320877	0.0
1.9020000000000015	2.7392996108949417	0.0	95.10000000000001	5.249314440157121	17.915159296057286	0.0
1.9040000000000015	3.2130373083085373	0.0	95.2	28.9288231179647	35.369525082692704	0.0
1.9060000000000015	1.2278507667658503	0.6281920326864148	95.30000000000001	18.222251253420268	57.637875575818754	0.6281920326864148
1.9080000000000015	0.0612314030670634	0.18692543411644533	95.4	14.488851562066007	19.623396519322096	0.18692543411644533
1.9100000000000015	0.06767681391622797	0.0	95.5	42.347309746966495	27.466510523831495	0.0
1.9120000000000015	2.7715266651407644	0.0	95.60000000000001	27.455336676774525	24.156067841945138	0.0
1.9140000000000015	3.2130373083085373	0.0	95.7	43.808639245284915	55.79332961360701	0.0
1.9160000000000015	1.0151522087434195	0.6956077630234935	95.80000000000001	19.96694336785347	31.941765832710033	0.6956077630234935
1.9180000000000015	0.0612314030670634	0.14300306435137897	95.9	25.241422849445055	43.93379039117216	0.14300306435137897
1.9200000000000015	0.06767681391622797	0.0	96.0	37.53595823587736	51.62005899738359	0.0
1.9220000000000015	2.9133257038223848	0.0	96.10000000000001	33.5831161369544	34.56264487827528	0.0
1.9240000000000015	3.209814602883955	0.0	96.2	21.666073568550207	49.87490385261101	0.0
1.9260000000000015	0.9345845731288625	0.7170582226762003	96.30000000000001	20.005594670444797	22.576263303152793	0.7170582226762003
1.9280000000000015	0.0612314030670634	0.1021450459652707	96.4	30.6146700369565	33.06914522177705	0.1021450459652707
1.9300000000000015	0.39639276722362093	0.0	96.5	5.483317337284642	74.65807360779193	0.0
1.9320000000000015	3.048679331654841	0.0	96.60000000000001	19.745026461711777	88.26099102177463	0.0
1.9340000000000015	3.209814602883955	0.0	96.7	25.13426716150984	7.287051898331506	0.0
1.9360000000000015	0.8507942320897229	0.7436159346271707	96.80000000000001	12.026579657141069	39.67564424285231	0.7436159346271707
1.9380000000000015	0.0612314030670634	0.06537282941777324	96.9	11.978508587336043	56.188726331413335	0.06537282941777324
1.9400000000000015	0.7992309452964065	0.0	97.0	47.50997595638427	101.29635988432719	0.0
1.9420000000000015	3.142137788967727	0.0	97.10000000000001	16.731933304377456	52.20146781517834	0.0
1.9440000000000015	3.209814602883955	0.0	97.2	47.93864588747886	88.74067397953706	0.0
1.9460000000000015	0.7992309452964065	0.6884576098059245	97.30000000000001	69.94407385420627	91.38747469775414	0.6884576098059245
1.9480000000000015	0.0612314030670634	0.03472931562819203	97.4	64.4700133580396	56.42414964108004	0.03472931562819203
1.9500000000000015	1.0473792629892424	0.0	97.5	52.67004744119718	62.99942248240309	0.0
1.9520000000000015	3.209814602883955	0.0	97.60000000000001	103.63326981329864	79.89624112115784	0.0
1.9540000000000015	3.209814602883955	0.0010214504596527316	97.7	49.59865939159051	159.16965666035986	0.0010214504596527316
1.9560000000000015	0.7766720073243305	0.5781409601634321	97.80000000000001	69.22606618475332	100.76045823088758	0.5781409601634321
1.9580000000000015	0.0612314030670634	0.004085801838610825	97.9	47.98232902996068	49.57977376654857	0.004085801838610825
1.9600000000000015	1.2600778210116732	0.0	98.0	18.88635929099788	110.7963999994675	0.0
1.9620000000000015	3.209814602883955	0.0	98.10000000000001	105.20154726630454	251.54795683344338	0.0
1.9640000000000015	3.209814602883955	0.0010214504596527316	98.2	71.60831232697895	211.0963004698658	0.0010214504596527316
1.9660000000000015	0.8572396429388875	0.449438202247191	98.30000000000001	57.37422567055203	54.0585224045701	0.449438202247191
1.9680000000000015	0.0612314030670634	0.0	98.4	26.033207359835004	146.39748666734647	0.0
1.9700000000000015	1.359981689173724	0.0	98.5	40.476768130955335	164.2728720413427	0.0
1.9720000000000015	3.209814602883955	0.0	98.60000000000001	125.24968495084518	249.87134227938185	0.0
1.9740000000000015	3.209814602883955	0.0010214504596527316	98.7	109.91938147659341	41.68560786310593	0.0010214504596527316
1.9760000000000015	0.8379034103913939	0.372829417773238	98.80000000000001	124.14183802750256	145.27754916577084	0.372829417773238
1.9780000000000015	0.0612314030670634	0.0	98.9	165.73329304444337	286.4932776770245	0.0
1.9800000000000015	1.2342961776150148	0.0	99.0	104.16165593280823	315.24156566715936	0.0
1.9820000000000015	3.209814602883955	0.0	99.10000000000001	63.952970768384944	43.185432962536254	0.0
1.9840000000000015	3.209814602883955	0.0010214504596527316	99.2	167.52898276668944	291.8871034769379	0.0010214504596527316
1.9860000000000015	0.7251087205310139	0.33503575076608794	99.30000000000001	36.51394478119365	286.1252482138303	0.33503575076608794
1.9880000000000015	0.0612314030670634	0.0	99.4	77.21589777978959	101.42722022465735	0.0
1.9900000000000015	1.4341039139391165	0.0	99.5	59.39832032167634	83.7985735371975	0.0
1.9920000000000015	3.209814602883955	0.0	99.60000000000001	6.801694462467086	183.774637116049	0.0
1.9940000000000015	3.209814602883955	0.0010214504596527316	99.7	188.71823531053792	303.8180130996201	0.0010214504596527316
1.9960000000000016	0.828235294117647	0.21961184882533202	99.80000000000001	57.661404853153535	156.52362908066175	0.21961184882533202
1.9980000000000016	0.0612314030670634	0.0	99.9	104.80173769788802	406.1847290678894	0.0
2.0000000000000013	1.4985580224307622	0.0	100.0	246.08782079386737	288.09649612651896	0.0
2.002000000000001	3.209814602883955	0.0	100.10000000000001	166.82928966143882	618.2539656832728	0.0
2.004000000000001	3.209814602883955	0.0010214504596527316	100.2	137.54962810920085	316.52555043928527	0.0010214504596527316
2.0060000000000007	0.7798947127489128	0.13381001021450456	100.30000000000001	325.7037681436252	806.8565126402611	0.13381001021450456
2.0080000000000005	0.0612314030670634	0.0	100.4	151.99612076218864	365.17538050393205	0.0
2.0100000000000002	1.2890821698329138	0.0	100.5	55.75920697454137	409.5422222296587	0.0
2.012	3.209814602883955	0.0	100.60000000000001	259.9191925006051	338.0405862348216	0.0
2.014	3.209814602883955	0.0	100.7	416.63412633890243	849.3432883908856	0.0
2.0159999999999996	0.6896589608606087	0.07354443309499491	100.80000000000001	368.26592121056547	226.21712989024866	0.07354443309499491
2.0179999999999993	0.0612314030670634	0.0	100.9	289.5341229867168	629.6596807900651	0.0
2.019999999999999	1.3922087434195467	0.0	101.0	153.24069067042495	380.2395667528765	0.0
2.021999999999999	3.209814602883955	0.0	101.10000000000001	257.79340203427955	786.9329253054457	0.0
2.0239999999999987	3.209814602883955	0.0	101.2	463.5439325958587	993.4920096168828	0.0
2.0259999999999985	0.6477637903410391	0.01838610827374871	101.30000000000001	548.7025490491238	909.1525160572984	0.01838610827374871
2.0279999999999982	0.0612314030670634	0.0	101.4	929.9149733143253	1345.9636606785773	0.0
2.029999999999998	1.3342000457770655	0.0	101.5	993.3491958675576	1373.7555708663372	0.0
2.031999999999998	3.206591897459373	0.0	101.60000000000001	818.69910833024	1786.3247114922603	0.0
2.0339999999999976	3.209814602883955	0.0	101.7	1403.4252219933248	210.77923071438744	0.0
2.0359999999999974	0.5800869764248112	0.02757916241062305	101.80000000000001	1264.7929519473198	768.3852775400136	0.02757916241062305
2.037999999999997	0.0612314030670634	0.0	101.9	1455.4586645653394	605.7462337685856	0.0
2.039999999999997	1.3180865186541542	0.0459652706843718	102.0	549.2250422451102	537.4100169251486	0.0459652706843718
2.0419999999999967	3.206591897459373	0.0	102.10000000000001	645.1577440424359	417.0044924923158	0.0
2.0439999999999965	3.209814602883955	0.0	102.2	847.7084682260999	230.1093247827425	0.0
2.0459999999999963	0.5478599221789884	0.022471910112359498	102.30000000000001	1541.9190032999556	310.9685959065996	0.022471910112359498
2.047999999999996	0.0612314030670634	0.0	102.4	857.9163900843884	230.89357528412225	0.0
2.049999999999996	1.4341039139391165	0.08375893769152194	102.5	309.7567529027318	56.74623557196539	0.08375893769152194
2.0519999999999956	3.206591897459373	0.0	102.60000000000001	421.4498430177254	121.73583178117555	0.0
2.0539999999999954	3.209814602883955	0.0010214504596527316	102.7	4.197068936229529	174.42499625273038	0.0010214504596527316
2.055999999999995	0.5768642710002289	0.0	102.80000000000001	900.1238451796766	490.35360915644947	0.0
2.057999999999995	0.0612314030670634	0.0	102.9	313.12818846703243	162.15082742244925	0.0
2.0599999999999947	1.408322270542458	0.1266598569969357	103.0	611.3041882899312	348.7156504147516	0.1266598569969357
2.0619999999999945	3.206591897459373	0.0010214504596525909	103.10000000000001	103.7898060717288	244.9430201821803	0.0010214504596525909
2.0639999999999943	3.2130373083085373	0.0	103.2	494.64900043442566	725.3831482447868	0.0
2.065999999999994	0.5188555733577477	0.0	103.30000000000001	81.38020998015135	794.5918435963632	0.0
2.067999999999994	0.0612314030670634	0.0	103.4	311.06758063521505	913.7212310935472	0.0
2.0699999999999936	1.4502174410620279	0.15015321756894795	103.5	163.04102384366297	527.0267295690938	0.15015321756894795
2.0719999999999934	3.206591897459373	0.0010214504596525909	103.60000000000001	188.58642972475283	858.3808305629543	0.0010214504596525909
2.073999999999993	3.209814602883955	0.0	103.7	265.8818996193936	449.05758035532347	0.0
2.075999999999993	0.4576241702906843	0.0	103.80000000000001	201.56287648712413	393.92130496171853	0.0
2.0779999999999927	0.0612314030670634	0.0	103.9	350.9749227473287	331.19222959919966	0.0
2.0799999999999925	1.5114488441290912	0.1756894790602656	104.0	364.670841295279	262.0794867875427	0.1756894790602656
2.0819999999999923	3.206591897459373	0.0020429009193053222	104.10000000000001	583.1958342086249	280.0101214906962	0.0020429009193053222
2.083999999999992	3.200146486610208	0.0	104.2	442.659147634126	212.7262029589531	0.0
2.085999999999992	0.4060608834973678	0.0	104.30000000000001	482.45011818049824	422.3632393507403	0.0
2.0879999999999916	0.0612314030670634	0.0	104.4	266.502635864206	122.77750309638775	0.0
2.0899999999999914	1.5114488441290912	0.25740551583248217	104.5	269.9825314183072	148.4103461555934	0.25740551583248217
2.091999999999991	3.206591897459373	0.0020429009193053222	104.60000000000001	265.4702398696636	177.07741614784854	0.0020429009193053222
2.093999999999991	3.196923781185626	0.0	104.7	279.37584317760485	193.55369753582767	0.0
2.0959999999999908	0.3867246509498741	0.0	104.80000000000001	192.8762997600474	240.51085786176367	0.0
2.0979999999999905	0.0612314030670634	0.0	104.9	244.41244957915922	242.97431008903115	0.0
2.0999999999999903	1.6500251773861294	0.27681307456588355	105.0	228.47931826805342	115.15803370257535	0.27681307456588355
2.10199999999999	3.209814602883955	0.0010214504596527316	105.10000000000001	169.6035467810542	308.2213912384087	0.0010214504596527316
2.10399999999999	3.200146486610208	0.0	105.2	47.02665145180237	187.6593890033844	0.0
2.1059999999999897	0.42539711604486147	0.0	105.30000000000001	84.35434042958859	112.25626942265224	0.0
2.1079999999999894	0.0612314030670634	0.0	105.4	11.932800388860988	258.4614495982643	0.0
2.109999999999989	1.7531517509727625	0.2870275791624107	105.5	39.06588245117472	262.13426877752084	0.2870275791624107
2.111999999999989	3.209814602883955	0.0010214504596527316	105.60000000000001	43.7714661336654	154.45435013449648	0.0010214504596527316
2.1139999999999888	3.196923781185626	0.0	105.7	142.33944476521856	208.51129793664845	0.0
2.1159999999999886	0.40928358892195005	0.0	105.80000000000001	146.13788841223487	225.75383084025086	0.0
2.1179999999999883	0.0612314030670634	0.8232890704800818	105.9	252.13762183900562	162.67940381399274	0.8232890704800818
2.119999999999988	1.7950469214923324	0.4484167517875383	106.0	150.1868441651131	227.32020525791208	0.4484167517875383
2.121999999999988	3.209814602883955	0.0	106.10000000000001	127.19258636009123	169.72047513008383	0.0
2.1239999999999877	3.1840329594872965	0.0	106.2	196.05156821833242	144.48868522516696	0.0
2.1259999999999875	0.17402609292744334	0.5832482124616957	106.30000000000001	235.09415168758954	200.58085720128886	0.5832482124616957
2.1279999999999872	0.0612314030670634	1.0	106.4	160.84175930760586	33.277848117636076	1.0
2.129999999999987	2.043195239185168	0.09805924412665998	106.5	301.0698934182986	42.03569302273483	0.09805924412665998
2.131999999999987	3.2130373083085373	0.0	106.60000000000001	471.781202020008	252.81896056021952	0.0
2.1339999999999866	2.475037766079194	0.0	106.7	396.3806864743852	32.97667428487839	0.0
2.1359999999999864	0.0612314030670634	0.7221654749744638	106.80000000000001	210.61317805493067	144.87239426164751	0.7221654749744638
2.137999999999986	0.0612314030670634	0.9989785495403474	106.9	291.9627213342861	99.86945269945817	0.9989785495403474
2.139999999999986	2.291343556878004	0.0	107.0	536.3868955139915	78.58426891372717	0.0
2.1419999999999857	3.209814602883955	0.0	107.10000000000001	671.5209333266511	166.83542769277915	0.0
2.1439999999999855	2.2494483863584347	0.0	107.2	482.30396380597807	61.64050674981765	0.0
2.1459999999999853	0.0612314030670634	0.8610827374872321	107.30000000000001	259.39191700409566	70.99631227479635	0.8610827374872321
2.147999999999985	0.0612314030670634	0.9979570990806946	107.4	270.3789297904485	101.20957083354763	0.9979570990806946
2.149999999999985	2.436365300984207	0.0	107.5	341.00401842098205	132.16298650926262	0.0
2.1519999999999846	3.2130373083085373	0.0	107.60000000000001	283.8818159264759	54.078653017488094	0.0
2.1539999999999844	1.8627237354085602	0.0	107.7	53.212593980553606	107.32683659703538	0.0
2.155999999999984	0.0612314030670634	0.9969356486210421	107.80000000000001	119.4034551843922	87.89725295602086	0.9969356486210421
2.157999999999984	0.0612314030670634	0.9989785495403474	107.9	178.69587449048018	125.69726048851379	0.9989785495403474
2.1599999999999837	2.5717189288166624	0.0	108.0	196.38909686591035	111.2533207056364	0.0
2.1619999999999835	3.2130373083085373	0.0	108.10000000000001	298.2881502406345	109.61315293919105	0.0
2.1639999999999833	1.485667200732433	0.07048008171603679	108.2	341.34336930725584	157.78583241863794	0.07048008171603679
2.165999999999983	0.0612314030670634	0.9979570990806946	108.30000000000001	346.93998371997054	141.06684753685147	0.9979570990806946
2.167999999999983	0.06767681391622797	0.9897854954034733	108.4	145.5567699458913	137.74194357100885	0.9897854954034733
2.1699999999999826	2.7360769054703593	0.0	108.5	133.82048469724063	182.59021600952138	0.0
2.1719999999999824	3.2130373083085373	0.0	108.60000000000001	237.06321431625005	58.63241858510568	0.0
2.173999999999982	1.1440604257267109	0.3850868232890705	108.7	260.0429286985115	96.70469676369606	0.3850868232890705
2.175999999999982	0.0612314030670634	0.9989785495403474	108.80000000000001	170.21699251202497	114.98120371737005	0.9989785495403474
2.1779999999999817	0.06767681391622797	0.5566905005107253	108.9	87.12297902678833	107.58051964754392	0.5566905005107253
2.1799999999999815	2.971334401464866	0.0	109.0	150.91970615682308	230.46373932208175	0.0
2.1819999999999813	3.209814602883955	0.0	109.10000000000001	226.8143405366151	185.74762691971995	0.0
2.183999999999981	0.9474753948271916	0.6077630234933606	109.2	187.56417303897936	168.4026896692957	0.6077630234933606
2.185999999999981	0.0612314030670634	0.9989785495403474	109.30000000000001	89.43266362956861	150.45715198570127	0.9989785495403474
2.1879999999999806	0.8024536507209887	0.07354443309499491	109.4	100.84231751610437	130.70189326613124	0.07354443309499491
2.1899999999999804	3.164696726939803	0.0	109.5	106.23089593351753	167.76297506659625	0.0
2.19199999999998	3.209814602883955	0.0	109.60000000000001	6.525733105597468	124.05292018052405	0.0
2.19399999999998	0.7573357747768368	0.7650663942798775	109.7	27.87076563175739	99.57508150413057	0.7650663942798775
2.1959999999999797	0.0612314030670634	0.9979570990806946	109.80000000000001	22.660129972849038	105.60274073495397	0.9979570990806946
2.1979999999999795	1.1666193636987867	0.0	109.9	31.53158049123091	53.58126847308693	0.0
2.1999999999999793	3.206591897459373	0.0	110.0	47.46567869152821	123.51602536520113	0.0
2.201999999999979	3.209814602883955	0.0	110.10000000000001	22.158823836353772	99.5684717666616	0.0
2.203999999999979	0.5285236896314945	0.850868232890705	110.2	60.702587679987914	74.56591547110769	0.850868232890705
2.2059999999999786	0.0612314030670634	0.7517875383043923	110.30000000000001	115.49760886807907	105.17643198361581	0.7517875383043923
2.2079999999999784	1.4888899061570153	0.0	110.4	63.54931577126272	49.81618831473798	0.0
2.209999999999978	3.206591897459373	0.0	110.5	24.148287612226735	115.87739686672954	0.0
2.211999999999978	3.200146486610208	0.0	110.60000000000001	85.83529930608674	105.30211280943234	0.0
2.2139999999999778	0.40283817807278555	0.8907048008171605	110.7	79.83486013427996	56.48827304305971	0.8907048008171605
2.2159999999999775	0.0612314030670634	0.7436159346271707	110.80000000000001	29.011146358164844	53.58746165297837	0.7436159346271707
2.2179999999999773	1.827273975738155	0.0	110.9	68.14046851925549	39.82525790646179	0.0
2.219999999999977	3.209814602883955	0.0	111.0	44.48896060469926	104.22892555627091	0.0
2.221999999999977	3.196923781185626	0.0	111.10000000000001	12.923084838874052	79.42753689579315	0.0
2.2239999999999767	0.29326619363698786	0.9254341164453526	111.2	72.1738838422283	86.1367363424484	0.9254341164453526
2.2259999999999764	0.0612314030670634	0.6322778345250257	111.30000000000001	59.429618878019774	81.45071756507323	0.6322778345250257
2.227999999999976	2.0754222934309907	0.0	111.4	62.80506545534509	34.48581087336138	0.0
2.229999999999976	3.2130373083085373	0.0	111.5	1.6672051345265693	96.02418961922999	0.0
2.231999999999976	2.8424261844815746	0.0	111.60000000000001	22.4245134747435	75.11622464154031	0.0
2.2339999999999756	0.1417990386816205	0.9734422880490298	111.7	62.946621165994976	48.32300616879967	0.9734422880490298
2.2359999999999753	0.0612314030670634	0.5362614913176712	111.80000000000001	18.159020358005716	67.44033635949786	0.5362614913176712
2.237999999999975	2.246225680933852	0.0	111.9	57.75034403373161	33.7566592088892	0.0
2.239999999999975	3.2130373083085373	0.0	112.0	40.283988953339	78.78479983906944	0.0
2.2419999999999747	2.278452735179675	0.1644535240040857	112.10000000000001	44.9759757788232	61.75976772147453	0.1644535240040857
2.2439999999999745	0.0612314030670634	0.9989785495403474	112.2	54.271321907037226	35.83075433997556	0.9989785495403474
2.2459999999999742	0.0612314030670634	0.37895812053115435	112.30000000000001	19.972330226283752	54.17686384457439	0.37895812053115435
2.247999999999974	2.4138063630121307	0.0	112.4	39.4254015370822	40.381045412089755	0.0
2.249999999999974	3.2130373083085373	0.0	112.5	38.13676509576085	62.036316969567174	0.0
2.2519999999999736	1.9594048981460288	0.27579162410623076	112.60000000000001	20.31653606739853	53.655205585939726	0.27579162410623076
2.2539999999999734	0.06445410849164569	0.9969356486210419	112.7	23.47276957416426	23.787834557407738	0.9969356486210419
2.255999999999973	0.0612314030670634	0.25740551583248217	112.80000000000001	39.895534830281335	32.051480213072715	0.25740551583248217
2.257999999999973	2.6941817349507895	0.0	112.9	9.143240718785064	24.845385394841397	0.0
2.2599999999999727	3.2130373083085373	0.0	113.0	35.32810955790726	29.00686340552237	0.0
