time (s)	EOG (volts)0	1.92717784390020590.002	2.74896772716868830.004	3.2065918974593730.006	3.21303730830853730.008	3.2098146028839550.01	3.1969237811856260.012	1.73381551842526880.014	0.72833142595559620.016	0.074122224765392530.018000000000000002	0.06123140306706340.020000000000000004	0.06123140306706340.022000000000000006	0.06123140306706340.024000000000000007	0.7605584802014190.02600000000000001	2.02708171206225660.02800000000000001	2.81342183566033380.030000000000000013	3.2065918974593730.032000000000000015	3.21303730830853730.034000000000000016	3.2098146028839550.03600000000000002	3.1969237811856260.03800000000000002	1.66291599908445860.04000000000000002	0.69288166628519110.04200000000000002	0.06123140306706340.044000000000000025	0.06123140306706340.04600000000000003	0.06123140306706340.04800000000000003	0.06123140306706340.05000000000000003	1.0570473792629890.05200000000000003	2.17210345616845930.054000000000000034	2.90688029297322050.056000000000000036	3.2065918974593730.05800000000000004	3.21303730830853730.06000000000000004	3.2098146028839550.06200000000000004	3.18403295948729650.06400000000000004	1.54045319295033180.06600000000000004	0.60586861982146940.06800000000000005	0.06123140306706340.07000000000000005	0.06123140306706340.07200000000000005	0.06123140306706340.07400000000000005	0.064454108491645690.07600000000000005	1.15050583657587540.07800000000000006	2.23978027008468760.08000000000000006	2.9519981689173720.08200000000000006	3.2098146028839550.08400000000000006	3.21303730830853730.08600000000000006	3.2098146028839550.08800000000000006	2.7779720759899290.09000000000000007	1.38576333257038220.09200000000000007	0.50274204623483630.09400000000000007	0.06123140306706340.09600000000000007	0.06123140306706340.09800000000000007	0.06123140306706340.10000000000000007	0.067676813916227970.10200000000000008	1.19884641794460970.10400000000000008	2.30101167315175070.10600000000000008	2.99711604486152440.10800000000000008	3.2098146028839550.11000000000000008	3.2098146028839550.11200000000000009	3.2098146028839550.11400000000000009	2.73285420004577650.11600000000000009	1.36320439459830610.11800000000000009	0.48985122453650720.12000000000000009	0.064454108491645690.1220000000000001	0.06123140306706340.1240000000000001	0.06123140306706340.12600000000000008	0.067676813916227970.12800000000000009	1.41154497596704040.1300000000000001	2.40736095216296640.1320000000000001	3.061570153353170.1340000000000001	3.2098146028839550.1360000000000001	3.2098146028839550.1380000000000001	3.2098146028839550.1400000000000001	2.34290684367132050.1420000000000001	1.11827878233005260.1440000000000001	0.328715953307392950.1460000000000001	0.064454108491645690.1480000000000001	0.06123140306706340.1500000000000001	0.06123140306706340.1520000000000001	0.067676813916227970.1540000000000001	1.49855802243076220.1560000000000001	2.4589242389562830.1580000000000001	3.0970199130235750.16000000000000011	3.2098146028839550.16200000000000012	3.21303730830853730.16400000000000012	3.2098146028839550.16600000000000012	2.2558937972075990.16800000000000012	1.0667154955367360.17000000000000012	0.29648889906157010.17200000000000013	0.06123140306706340.17400000000000013	0.06123140306706340.17600000000000013	0.06123140306706340.17800000000000013	0.293266193636987860.18000000000000013	1.67258411535820530.18200000000000013	2.61361409933623220.18400000000000014	3.1969237811856260.18600000000000014	3.21303730830853730.18800000000000014	3.21303730830853730.19000000000000014	3.21303730830853730.19200000000000014	2.13987640192263660.19400000000000014	1.00226138704509030.19600000000000015	0.24492561226825360.19800000000000015	0.06123140306706340.20000000000000015	0.06123140306706340.20200000000000015	0.06123140306706340.20400000000000015	0.338384069581139870.20600000000000016	1.72092469672693960.20800000000000016	2.6071686884870680.21000000000000016	3.18403295948729650.21200000000000016	3.2098146028839550.21400000000000016	3.2098146028839550.21600000000000016	3.2065918974593730.21800000000000017	2.00774547951476330.22000000000000017	0.91202563515678650.22200000000000017	0.196585030899519310.22400000000000017	0.06123140306706340.22600000000000017	0.06123140306706340.22800000000000017	0.06123140306706340.23000000000000018	0.5897550926985580.23200000000000018	1.87561455710688940.23400000000000018	2.71351796749828320.23600000000000018	3.2098146028839550.23800000000000018	3.21303730830853730.24000000000000019	3.2098146028839550.2420000000000002	3.203369192034790.2440000000000002	1.9400686655985350.2460000000000002	0.86368505378805220.2480000000000002	0.164357976653696470.25000000000000017	0.06123140306706340.25200000000000017	0.06123140306706340.25400000000000017	0.06123140306706340.25600000000000017	0.71221789883268480.2580000000000002	1.97551842526894020.2600000000000002	2.78764019226367580.2620000000000002	3.2065918974593730.2640000000000002	3.21303730830853730.2660000000000002	3.2098146028839550.2680000000000002	3.1969237811856260.2700000000000002	1.68547493705653450.2720000000000002	0.69932707713435560.2740000000000002	0.06123140306706340.2760000000000002	0.06123140306706340.2780000000000002	0.06123140306706340.2800000000000002	0.06123140306706340.2820000000000002	0.87657587548638130.2840000000000002	2.05608606088349740.2860000000000002	2.8295353627832450.2880000000000002	3.2065918974593730.2900000000000002	3.2098146028839550.2920000000000002	3.2098146028839550.2940000000000002	3.1872556649118790.2960000000000002	1.566234836346990.2980000000000002	0.62198214694438080.3000000000000002	0.06123140306706340.3020000000000002	0.06123140306706340.3040000000000002	0.06123140306706340.3060000000000002	0.06123140306706340.3080000000000002	1.04737926298924240.3100000000000002	2.17210345616845930.3120000000000002	2.90043488212405580.3140000000000002	3.2065918974593730.3160000000000002	3.21303730830853730.3180000000000002	3.2098146028839550.32000000000000023	2.9294392309452960.32200000000000023	1.45666285191119240.32400000000000023	0.55108262760357050.32600000000000023	0.06123140306706340.32800000000000024	0.06123140306706340.33000000000000024	0.06123140306706340.33200000000000024	0.06123140306706340.33400000000000024	1.05060196841382460.33600000000000024	2.21722133211261150.33800000000000024	2.9423300526436250.34000000000000025	3.2098146028839550.34200000000000025	3.21303730830853730.34400000000000025	3.2098146028839550.34600000000000025	2.78764019226367580.34800000000000025	1.39220874341954670.35000000000000026	0.51885557335774770.35200000000000026	0.06123140306706340.35400000000000026	0.06123140306706340.35600000000000026	0.06123140306706340.35800000000000026	0.067676813916227970.36000000000000026	1.51144884412909120.36200000000000027	2.4847058823529410.36400000000000027	3.1195788509956510.36600000000000027	3.21303730830853730.36800000000000027	3.2098146028839550.3700000000000003	3.2098146028839550.3720000000000003	2.26233920805676330.3740000000000003	1.0763836118104830.3760000000000003	0.30293430991073470.3780000000000003	0.064454108491645690.3800000000000003	0.06123140306706340.3820000000000003	0.06123140306706340.3840000000000003	0.2610391393911650.3860000000000003	1.68547493705653450.3880000000000003	2.5846097505149920.3900000000000003	3.1775875486381320.3920000000000003	3.2098146028839550.3940000000000003	3.21303730830853730.3960000000000003	3.2098146028839550.3980000000000003	2.1076493476768140.4000000000000003	0.97647974364843220.4020000000000003	0.241702906843671320.4040000000000003	0.06123140306706340.4060000000000003	0.06123140306706340.4080000000000003	0.06123140306706340.4100000000000003	0.42861982146944380.4120000000000003	1.77248798352025630.4140000000000003	2.65873197528038440.4160000000000003	3.2098146028839550.4180000000000003	3.21303730830853730.4200000000000003	3.2098146028839550.4220000000000003	3.21303730830853730.4240000000000003	2.1076493476768140.4260000000000003	0.98292515449759670.4280000000000003	0.212698558022430730.4300000000000003	0.06123140306706340.43200000000000033	0.06123140306706340.43400000000000033	0.06123140306706340.43600000000000033	0.53174639505607690.43800000000000033	1.84016479743648430.44000000000000034	2.69418173495078950.44200000000000034	3.2098146028839550.44400000000000034	3.21303730830853730.44600000000000034	3.2098146028839550.44800000000000034	3.1969237811856260.45000000000000034	1.904618905928130.45200000000000035	0.84434882124055840.45400000000000035	0.15468986037994960.45600000000000035	0.06123140306706340.45800000000000035	0.06123140306706340.46000000000000035	0.06123140306706340.46200000000000035	0.67354543373769740.46400000000000036	1.9304005493247880.46600000000000036	2.74896772716868830.46800000000000036	3.2098146028839550.47000000000000036	3.2098146028839550.47200000000000036	3.2098146028839550.47400000000000037	3.1969237811856260.47600000000000037	1.81760585946440820.47800000000000037	0.7831174181734950.48000000000000037	0.109571984435797660.4820000000000004	0.06123140306706340.4840000000000004	0.06123140306706340.4860000000000004	0.06123140306706340.4880000000000004	0.78956282902265960.4900000000000004	2.04964065003433270.4920000000000004	2.83275806820782750.4940000000000004	3.2065918974593730.4960000000000004	3.2098146028839550.4980000000000004	3.2098146028839550.5000000000000003	3.1969237811856260.5020000000000003	1.7112565804531930.5040000000000003	0.7154406042572670.5060000000000003	0.06123140306706340.5080000000000003	0.06123140306706340.5100000000000003	0.0580086976424811150.5120000000000003	0.06123140306706340.5140000000000003	0.99581597619592580.5160000000000003	2.1334309910734720.5180000000000003	2.87465323872739730.5200000000000004	3.2065918974593730.5220000000000004	3.2098146028839550.5240000000000004	3.2098146028839550.5260000000000004	3.19370107576104360.5280000000000004	1.60813000686655960.5300000000000004	0.65743190661478590.5320000000000004	0.06123140306706340.5340000000000004	0.06123140306706340.5360000000000004	0.06123140306706340.5380000000000004	0.064454108491645690.5400000000000004	1.12150148775463480.5420000000000004	2.2204440375371940.5440000000000004	2.93266193636987850.5460000000000004	3.2098146028839550.5480000000000004	3.21303730830853730.5500000000000004	3.2098146028839550.5520000000000004	3.1872556649118790.5540000000000004	1.5307850766765850.5560000000000004	0.59942320897230480.5580000000000004	0.06123140306706340.5600000000000004	0.06123140306706340.5620000000000004	0.06123140306706340.5640000000000004	0.067676813916227970.5660000000000004	1.25040970473792610.5680000000000004	2.33646143282215620.5700000000000004	3.01645227740901770.5720000000000004	3.2098146028839550.5740000000000004	3.2098146028839550.5760000000000004	3.2098146028839550.5780000000000004	2.69418173495078950.5800000000000004	1.34386816205081240.5820000000000004	0.476960402838178030.5840000000000004	0.06123140306706340.5860000000000004	0.06123140306706340.5880000000000004	0.06123140306706340.5900000000000004	0.067676813916227970.5920000000000004	1.36642710002288830.5940000000000004	2.3783566033417260.5960000000000004	3.0422339208056760.5980000000000004	3.2098146028839550.6000000000000004	3.21303730830853730.6020000000000004	3.2098146028839550.6040000000000004	2.47826047150377660.6060000000000004	1.2149599450675210.6080000000000004	0.38994735637445640.6100000000000004	0.06123140306706340.6120000000000004	0.06123140306706340.6140000000000004	0.06123140306706340.6160000000000004	0.067676813916227970.6180000000000004	1.57268024719615450.6200000000000004	2.51693293659876360.6220000000000004	3.13569237811856240.6240000000000004	3.21303730830853730.6260000000000004	3.21303730830853730.6280000000000004	3.2098146028839550.6300000000000004	2.17532616159304170.6320000000000005	0.99903868162050810.6340000000000005	0.251371023117418160.6360000000000005	0.06123140306706340.6380000000000005	0.06123140306706340.6400000000000005	0.06123140306706340.6420000000000005	0.067676813916227970.6440000000000005	1.61135271229114220.6460000000000005	2.54593728542000440.6480000000000005	3.15180590524147370.6500000000000005	3.21303730830853730.6520000000000005	3.2098146028839550.6540000000000005	3.21303730830853730.6560000000000005	2.11087205310139630.6580000000000005	0.97647974364843220.6600000000000005	0.22236667429617760.6620000000000005	0.06123140306706340.6640000000000005	0.06123140306706340.6660000000000005	0.06123140306706340.6680000000000005	0.425397116044861470.6700000000000005	1.77571068894483860.6720000000000005	2.6458411535820550.6740000000000005	3.203369192034790.6760000000000005	3.21303730830853730.6780000000000005	3.21303730830853730.6800000000000005	3.2001464866102080.6820000000000005	1.95295948729686430.6840000000000005	0.87657587548638130.6860000000000005	0.177248798352025640.6880000000000005	0.06123140306706340.6900000000000005	0.06123140306706340.6920000000000005	0.06123140306706340.6940000000000005	0.65743190661478590.6960000000000005	1.92073243305104140.6980000000000005	2.7457450217441060.7000000000000005	3.2098146028839550.7020000000000005	3.21303730830853730.7040000000000005	3.2098146028839550.7060000000000005	3.1969237811856260.7080000000000005	1.94651407644769960.7100000000000005	0.8733531700617990.7120000000000005	0.174026092927443340.7140000000000005	0.06123140306706340.7160000000000005	0.06123140306706340.7180000000000005	0.06123140306706340.7200000000000005	0.75089036392767220.7220000000000005	2.00452277409018050.7240000000000005	2.80053101396200480.7260000000000005	3.2065918974593730.7280000000000005	3.21303730830853730.7300000000000005	3.2098146028839550.7320000000000005	3.1969237811856260.7340000000000005	1.92717784390020590.7360000000000005	0.86368505378805220.7380000000000005	0.138576333257038220.7400000000000005	0.06123140306706340.7420000000000005	0.06123140306706340.7440000000000005	0.06123140306706340.7460000000000006	0.90558022430762190.7480000000000006	2.07864499885557350.7500000000000006	2.84564888990615650.7520000000000006	3.2065918974593730.7540000000000006	3.21303730830853730.7560000000000006	3.2098146028839550.7580000000000006	3.1969237811856260.7600000000000006	1.7112565804531930.7620000000000006	0.7154406042572670.7640000000000006	0.070899519340810250.7660000000000006	0.06123140306706340.7680000000000006	0.06123140306706340.7700000000000006	0.06123140306706340.7720000000000006	0.98937056534676120.7740000000000006	2.13020828564888950.7760000000000006	2.87465323872739730.7780000000000006	3.2065918974593730.7800000000000006	3.21303730830853730.7820000000000006	3.2098146028839550.7840000000000006	3.1969237811856260.7860000000000006	1.65002517738612940.7880000000000006	0.6799908445868620.7900000000000006	0.06123140306706340.7920000000000006	0.06123140306706340.7940000000000006	0.06123140306706340.7960000000000006	0.067676813916227970.7980000000000006	1.20529182879377440.8000000000000006	2.3719111924925610.8020000000000006	3.0551247425040050.8040000000000006	3.2098146028839550.8060000000000006	3.21303730830853730.8080000000000006	3.2098146028839550.8100000000000006	2.7457450217441060.8120000000000006	1.36964980544747080.8140000000000006	0.48985122453650720.8160000000000006	0.064454108491645690.8180000000000006	0.06123140306706340.8200000000000006	0.06123140306706340.8220000000000006	0.067676813916227970.8240000000000006	1.47922178988326820.8260000000000006	2.4524788281071180.8280000000000006	3.09057450217441070.8300000000000006	3.2098146028839550.8320000000000006	3.21303730830853730.8340000000000006	3.2098146028839550.8360000000000006	2.34290684367132050.8380000000000006	1.11505607690547030.8400000000000006	0.325493247882810640.8420000000000006	0.064454108491645690.8440000000000006	0.06123140306706340.8460000000000006	0.06123140306706340.8480000000000006	0.36094300755321580.8500000000000006	1.74348363469901570.8520000000000006	2.62650492103456170.8540000000000006	3.2001464866102080.8560000000000006	3.21303730830853730.8580000000000007	3.21303730830853730.8600000000000007	3.2098146028839550.8620000000000007	2.08186770428015540.8640000000000007	0.95069810025177380.8660000000000007	0.219143968871595320.8680000000000007	0.06123140306706340.8700000000000007	0.06123140306706340.8720000000000007	0.06123140306706340.8740000000000007	0.5897550926985580.8760000000000007	1.904618905928130.8780000000000007	2.7457450217441060.8800000000000007	3.2098146028839550.8820000000000007	3.21303730830853730.8840000000000007	3.2098146028839550.8860000000000007	3.1969237811856260.8880000000000007	1.87883726253147150.8900000000000007	0.81856717784390010.8920000000000007	0.103126573586633090.8940000000000007	0.06123140306706340.8960000000000007	0.06123140306706340.8980000000000007	0.06123140306706340.9000000000000007	0.87979858091096360.9020000000000007	2.0528633554589150.9040000000000007	2.8263126573586630.9060000000000007	3.2065918974593730.9080000000000007	3.21303730830853730.9100000000000007	3.2098146028839550.9120000000000007	3.1969237811856260.9140000000000007	1.70481116960402820.9160000000000007	0.7154406042572670.9180000000000007	0.070899519340810250.9200000000000007	0.06123140306706340.9220000000000007	0.06123140306706340.9240000000000007	0.06123140306706340.9260000000000007	1.08605172808422970.9280000000000007	2.19466239414053540.9300000000000007	2.9229938200961320.9320000000000007	3.2065918974593730.9340000000000007	3.21303730830853730.9360000000000007	3.2098146028839550.9380000000000007	3.1969237811856260.9400000000000007	1.61457541771572430.9420000000000007	0.65420920119020360.9440000000000007	0.06123140306706340.9460000000000007	0.06123140306706340.9480000000000007	0.06123140306706340.9500000000000007	0.06123140306706340.9520000000000007	1.02482032501716640.9540000000000007	2.2075532158388650.9560000000000007	2.93266193636987850.9580000000000007	3.2098146028839550.9600000000000007	3.21303730830853730.9620000000000007	3.2098146028839550.9640000000000007	2.95844357976653650.9660000000000007	1.49211261158159750.9680000000000007	0.57041886015106440.9700000000000008	0.06123140306706340.9720000000000008	0.06123140306706340.9740000000000008	0.06123140306706340.9760000000000008	0.067676813916227970.9780000000000008	1.31486381322957180.9800000000000008	2.3461295490959030.9820000000000008	3.01967498283360050.9840000000000008	3.2098146028839550.9860000000000008	3.21303730830853730.9880000000000008	3.2098146028839550.9900000000000008	2.8714305333028150.9920000000000008	1.44377203021286320.9940000000000008	0.20303044174868390.9960000000000008	0.06123140306706340.9980000000000008	0.0612314030670634